time,ecg
0.0,-0.011332872140034807
0.004,-0.009194522860016114
0.008,0.0049716074405376405
0.012,0.0014242573607056526
0.016,0.006904853540677682
0.02,-0.004272526463365343
0.024,0.0015853969107671422
0.028,0.006255903939673367
0.032,-0.003093465397202384
0.036,0.004567752375574115
0.04,-0.006619259410666513
0.044,-0.003630538465650718
0.048,-0.003817378939983291
0.052,-0.011958396455890396
0.056,0.0048697248078558185
0.06,-0.004694023402027239
0.064,0.0001249411872768743
0.068,0.0048074665890590895
0.072,0.004465311760299441
0.076,0.006653851089727864
0.08,-0.0009848548450942338
0.084,-0.004232983120441528
0.088,-0.0007971821090639541
0.092,-0.01687334433958016
0.096,-0.014471124724230351
0.1,-0.013226996123542124
0.104,-0.009972468276008074
0.108,0.003997742267257713
0.112,-0.009054790553521845
0.116,-0.0037816255401348898
0.12,0.012992282978690846
0.124,-0.0035626397080205188
0.128,0.007375155692569589
0.132,-0.009336176776652742
0.136,-0.0020543755108397505
0.14,-0.009500220357794669
0.144,-0.0033903302331108574
0.148,0.008403082783666416
0.152,-0.01727320055180168
0.156,0.004344245803891626
0.16,0.0023773792696198145
0.164,-0.005941443332847621
0.168,-0.014460445995750927
0.172,0.0007215996608161057
0.176,-0.005294244874959472
0.18,0.0023282515391929172
0.184,0.00022169100824899512
0.188,0.016024363360899574
0.192,-0.002380263899590335
0.196,-0.010208779349392683
0.2,0.0018430757437485387
0.204,0.002294182891964126
0.208,0.013763823488903874
0.212,0.008656991757122126
0.216,0.004099088916721229
0.22,0.01552943234644651
0.224,-0.010410892996769642
0.228,-0.0040262225217112
0.232,-0.005554262433282104
0.236,0.0017642309821371718
0.24,-0.005346647050443026
0.244,0.01855638241782285
0.248,0.015021273601917544
0.252,0.009038440448264264
0.256,0.021719632829177937
0.26,0.04484073354248114
0.264,0.06156939796307874
0.268,0.08608493003771665
0.272,0.10925139682400098
0.276,0.09876091741487432
0.28,0.09902697436073513
0.284,0.10090107651799626
0.288,0.136355297899066
0.292,0.13438388411729074
0.296,0.14393866313674672
0.3,0.1438790320094019
0.304,0.1466843268743797
0.308,0.15317309737827045
0.312,0.13524866895008109
0.316,0.12063519095492248
0.32,0.0985658180327955
0.324,0.07786999363507063
0.328,0.07524969307319426
0.332,0.06557979561261557
0.336,0.07086743141993398
0.34,0.04300834028270865
0.344,0.04170281875148538
0.348,0.018753547407902083
0.352,0.00539406290874026
0.356,0.002553705327364937
0.36,0.0011679537797809761
0.364,0.026947026338080812
0.368,-0.0045023698114072825
0.372,0.010756184843266237
0.376,-0.007552534234198829
0.38,0.010212133563377034
0.384,0.004379887986936533
0.388,-0.0012604996781908585
0.392,-0.00023567753629425876
0.396,-0.00645366108944731
0.4,0.004511039131379257
0.404,-0.004523662460878898
0.408,-0.012242966813416458
0.412,-0.012774290683240486
0.416,0.0017196705888710838
0.42,0.015742082923204732
0.424,0.0013705288755223358
0.428,-0.0020824665857254567
0.432,-0.00011766331992424037
0.436,0.004640525871022424
0.44,-0.018102716223479406
0.444,-0.045796191330756936
0.448,-0.061866295674821624
0.452,-0.10429932133575781
0.456,-0.12190602219796128
0.46,-0.14430172042778416
0.464,-0.13960312209640416
0.468,-0.09403840961438094
0.472,0.009225027649015005
0.476,0.11086643544653717
0.48,0.22725686002378437
0.484,0.39886037858065915
0.488,0.6181689296447009
0.492,0.788768556244955
0.496,0.936767243760174
0.5,1.006300200891683
0.504,0.9416222493081428
0.508,0.7991931456006545
0.512,0.5999393619693838
0.516,0.4004595831278414
0.52,0.2296008301007374
0.524,0.06674278988164435
0.528,-0.049504430535689134
0.532,-0.17345113147440755
0.536,-0.22012569995915238
0.54,-0.25452205805538825
0.544,-0.2417015303549843
0.548,-0.18989763017090716
0.552,-0.12482764378036174
0.556,-0.06017016225168936
0.56,-0.046874480607712245
0.564,-0.01343012379024039
0.568,-0.009403747821619145
0.572,-0.00423973432333253
0.576,0.010347817417132761
0.58,0.006223903558897804
0.584,0.014570727211299494
0.588,2.860659382055656e-05
0.592,-0.004923771484111567
0.596,0.0003745912509377971
0.6,0.005757663066690804
0.604,0.005988888247157702
0.608,-0.005526491313034009
0.612,0.007557329632351652
0.616,0.010551852988195361
0.62,0.03538897679571584
0.624,0.03130416994279537
0.628,0.00675425587547007
0.632,0.015648597209536978
0.636,0.0076654862368668916
0.64,0.02076941509818106
0.644,0.034864476818350004
0.648,0.049507628607632234
0.652,0.03665607866127371
0.656,0.04470171245624157
0.66,0.03789671942769793
0.664,0.06671930221395374
0.668,0.06755340218521123
0.672,0.08355853072141944
0.676,0.09157320393359347
0.68,0.11165070411289446
0.684,0.10795744876034452
0.688,0.12440025279488948
0.692,0.17437581045893394
0.696,0.1545586408122643
0.7,0.1709913421292435
0.704,0.21485342442897798
0.708,0.23986598855292326
0.712,0.2130329405592443
0.716,0.23439173063684962
0.72,0.25399661893278663
0.724,0.2793493322377109
0.728,0.26245268986176645
0.732,0.27872369022438215
0.736,0.2962408892320982
0.74,0.29840726273669277
0.744,0.294086196658843
0.748,0.2984218663292447
0.752,0.2860111378907053
0.756,0.2954660199313973
0.76,0.291395727091937
0.764,0.2907892123677433
0.768,0.27562319649561307
0.772,0.27703664587150023
0.776,0.27218951397185326
0.78,0.2521353567000662
0.784,0.24159178428872197
0.788,0.22528016032327638
0.792,0.21081616079143334
0.796,0.18926870881033636
0.8,0.18512414053052298
0.804,0.16646000064086972
0.808,0.1740150224279569
0.812,0.15480425427355182
0.816,0.12939319819947584
0.82,0.10496275755847236
0.824,0.08921769699543518
0.828,0.10076435452596884
0.832,0.08080503855527825
0.836,0.07314739545331893
0.84,0.04192374985534256
0.844,0.060517561672501344
0.848,0.04849112042085342
0.852,0.026344785554605118
0.856,0.02699317870794711
0.86,0.02931365728138112
0.864,0.02282457423879936
0.868,0.01560071896699319
0.872,0.014251806700398665
0.876,0.010015950047909934
0.88,0.01173986154140449
0.884,0.022984489416809577
0.888,-0.019014152591856414
0.892,0.0029488867869564878
0.896,0.0059882791951969185
0.9,0.006292638858343687
0.904,-0.0011059276496543776
0.908,-0.015531227239293366
0.912,0.0048561005974367116
0.916,0.018485878631560267
0.92,-0.014411999426690345
0.924,0.00934197002113195
0.928,-0.002754265117170052
0.932,-0.00021512971419313312
0.936,-0.0102323989508368
0.94,-0.0031250209978923426
0.944,0.013161918915932633
0.948,0.005944558689313816
0.952,0.017408806193092926
0.956,0.011835945741165881
0.96,0.004435191298344071
0.964,0.01747091938333332
0.968,0.0044122796172324855
0.972,0.008295598713966226
0.976,-0.002954726575914295
0.98,0.0006730841839874909
0.984,-0.006968976539014999
0.988,0.009899447464983415
0.992,-0.011780575517554853
0.996,0.00782517663568595
1.0,-0.0019053661600689276
1.004,0.011713281619634027
1.008,0.0075093353854431754
1.012,0.018207131122115444
1.016,0.007308725414808332
1.02,-0.015718600896286714
1.024,-0.0006659174999833549
1.028,-0.011712731197895876
1.032,-0.005168090972679385
1.036,0.01514111332141729
1.04,0.006430483336932673
1.044,-0.006886448458835329
1.048,-0.009950155488021455
1.052,0.0006592860976307494
1.056,-0.011592963998095986
1.06,-0.005747117154657919
1.064,0.004702852083068679
1.068,0.014085362908654114
1.072,0.010036535386597725
1.076,-0.01691037517635424
1.08,0.011937129893831068
1.084,0.013564037809766328
1.088,0.022218619764332967
1.092,0.04096914504715077
1.096,0.012544884969607754
1.1,0.03733917424248888
1.104,0.06086540991557762
1.108,0.052249951885546625
1.112,0.09693139196440126
1.116,0.10037748675070074
1.12,0.11937235622821893
1.124,0.11828352107114201
1.128,0.14325745018851924
1.132,0.15420824790502158
1.136,0.1509255106629998
1.14,0.1523047073581092
1.144,0.15021555636863862
1.148,0.13280257145946991
1.152,0.1307073539014252
1.156,0.11888707953394309
1.16,0.11075158169776948
1.164,0.10253407669697791
1.168,0.06747895791821139
1.172,0.06294137134014069
1.176,0.0662643940732161
1.18,0.03275919146756903
1.184,0.022386116632543952
1.188,0.024742450530343154
1.192,0.024881195641076867
1.196,0.011706002264095548
1.2,0.021257578192948774
1.204,0.013906559662174495
1.208,0.011904721287632562
1.212,0.007760575027270308
1.216,0.024653629188471103
1.22,-0.0012187524255086852
1.224,-0.019544240639417284
1.228,0.016324667182946655
1.232,-0.004418980542013309
1.236,0.001165068779112476
1.24,0.013141407836245846
1.244,-0.01599881766067187
1.248,-0.012504705569977834
1.252,-0.01600880440112152
1.256,-0.007950557522953632
1.26,0.004334539824805179
1.264,0.004960241034738199
1.268,0.0016882257309109117
1.272,-0.017615122622180762
1.276,-0.0327443148878261
1.28,-0.022176646664267753
1.284,-0.050324647518018045
1.288,-0.0733789165944996
1.292,-0.10641375741538171
1.296,-0.13862739779499705
1.3,-0.13762626822417576
1.304,-0.12001666947245354
1.308,-0.06617390025704285
1.312,-0.0017196465288191127
1.316,0.10892117809873998
1.32,0.2535681530397594
1.324,0.43848469012877167
1.328,0.6289673470264313
1.332,0.8301307714425499
1.336,0.9571613340788152
1.34,0.9975438358065342
1.344,0.9378005361667743
1.348,0.753075597087222
1.352,0.5588506665359524
1.356,0.35445438852040606
1.36,0.16883382791377377
1.364,0.040061328521998875
1.368,-0.06387561252165798
1.372,-0.16743131077520046
1.376,-0.2241087505934454
1.38,-0.23535827476870483
1.384,-0.21083553381266035
1.388,-0.1734537816316462
1.392,-0.0996979794763658
1.396,-0.06221817452464634
1.4,-0.03826684616137044
1.404,-0.017846582593543853
1.408,-0.01860914973746378
1.412,-0.009570237352222396
1.416,-0.0031594713496287665
1.42,0.008932578621792813
1.424,0.01845482126584017
1.428,-0.012188108091736052
1.432,0.006038869700473117
1.436,-0.00769865376203557
1.44,0.00819587207898638
1.444,0.0030555414667095895
1.448,-0.012816330318042472
1.452,0.016148472919320273
1.456,0.0024766175858390504
1.46,0.005183098247806233
1.464,0.002204215384885475
1.468,0.009175793993132477
1.472,0.023307268383097362
1.476,0.020995607653245013
1.48,0.030641618356695655
1.484,0.03610438428341472
1.488,0.051537956096684746
1.492,0.041513209851587525
1.496,0.03758584291465031
1.5,0.07127378602723662
1.504,0.06638544086214233
1.508,0.09079968317418297
1.512,0.09428162693602878
1.516,0.10073810386890943
1.52,0.11789244789411939
1.524,0.14694766345194904
1.528,0.16181926757875245
1.532,0.15581317445859766
1.536,0.17110635675383967
1.54,0.19480430448503458
1.544,0.19009473727515516
1.548,0.21616885520455656
1.552,0.2264388204872397
1.556,0.24305789451145107
1.56,0.24395773607385543
1.564,0.247713904880086
1.568,0.2529484916593808
1.572,0.2711451776988677
1.576,0.2847878301670385
1.58,0.29178234029652217
1.584,0.3176099293324306
1.588,0.3109376632805293
1.592,0.2899823400410298
1.596,0.3008965200297266
1.6,0.28929717936164867
1.604,0.2846819740712753
1.608,0.2818551100370305
1.612,0.2771271346731384
1.616,0.25709749590619896
1.62,0.2594882060804435
1.624,0.22479347651470855
1.628,0.2228507168540601
1.632,0.23476108750898872
1.636,0.1966440734779768
1.64,0.1942086374626782
1.644,0.16628013397179128
1.648,0.15686201762746685
1.652,0.13653391130946185
1.656,0.12194006178427302
1.66,0.10300130775553117
1.664,0.10295280729995068
1.668,0.07875931114637147
1.672,0.0833744921706948
1.676,0.07786200689496735
1.68,0.06182039555286954
1.684,0.04728646084739793
1.688,0.04750878019655705
1.692,0.03349562737864344
1.696,0.040301676438337854
1.7,0.007697332833060223
1.704,0.018367954560512743
1.708,-0.001880532512759707
1.712,-8.593468182922955e-05
1.716,0.025817118374990435
1.72,0.018865930719657562
1.724,0.0008244110860319079
1.728,-0.008579905767936723
1.732,-0.024498314737564607
1.736,-0.0013508885954467394
1.74,0.02742413756323532
1.744,0.00687137113278692
1.748,-0.0036321886483705657
1.752,0.006169465028647186
1.756,-0.014442492237323409
1.76,-0.0020820467556574985
1.764,0.0016709406013810065
1.768,-0.0003512553516952982
1.772,0.008289903243228283
1.776,0.0037306559713876095
1.78,0.0068934425495162785
1.784,-0.006729274436160669
1.788,0.009090923447883066
1.792,0.01637118203307194
1.796,-0.009642519722651014
1.8,-0.008834713897214434
1.804,0.013387909657397256
1.808,-0.0018921717301370673
1.812,0.014053174494957184
1.816,-0.004414872007183799
1.82,0.014557823587307008
1.824,0.0013201515155744138
1.828,0.002586390734895455
1.832,0.01565100469789244
1.836,-0.0036129410108139814
1.84,-0.009403545060296132
1.844,-0.004471555817320933
1.848,0.004550171655779905
1.852,-0.015606650948388206
1.856,0.006469688073828457
1.86,-0.0052146527012348134
1.864,0.011785760564064164
1.868,-0.023409406869801815
1.872,-0.006964772159478495
1.876,-0.01538096259325852
1.88,-0.005880402573162098
1.884,0.0062038100726607365
1.888,0.0038925298137848932
1.892,0.005917751731594037
1.896,0.010655377058432086
1.9,0.01933293671186395
1.904,0.013731750825888758
1.908,0.039030785817379045
1.912,0.04843555953018516
1.916,0.05715706276117158
1.92,0.07181392569875127
1.924,0.08321577903130384
1.928,0.11510806035565578
1.932,0.108186165168701
1.936,0.11927162623091643
1.94,0.1262420454245508
1.944,0.13226106293381312
1.948,0.13568399987262864
1.952,0.14111184738882104
1.956,0.14734860459247953
1.96,0.14578554566916005
1.964,0.13409021971946747
1.968,0.11444509479043814
1.972,0.11778935606522647
1.976,0.10187042784030806
1.98,0.07837751105949058
1.984,0.059457590630463235
1.988,0.05855399720623643
1.992,0.04348218215405903
1.996,0.01730744574409763
2.0,0.022996246403386492
2.004,0.019808443480749883
2.008,0.0031656916631635033
2.012,0.010287434623377414
2.016,-0.008908282219650567
2.02,0.01705776944209432
2.024,0.014840248678309497
2.028,-0.0010553659663090733
2.032,0.004526519285729955
2.036,-0.023571591594341957
2.04,-0.01125925874008082
2.044,-0.0027668177632431366
2.048,-0.01062767247935397
2.052,0.007193971423552897
2.056,0.019998969074224167
2.06,-0.011753149013612688
2.064,-0.00836962228997702
2.068,0.0023480915438870466
2.072,0.016061536741088508
2.076,-0.012456359410164075
2.08,0.001583120089234706
2.084,0.015204684117275113
2.088,-0.025015526359012528
2.092,-0.03326464695529763
2.096,-0.04618125532237202
2.1,-0.078472972517688
2.104,-0.10079322269115644
2.108,-0.13504601230362442
2.112,-0.16384082942758377
2.116,-0.121881386881293
2.12,-0.08554851349580747
2.124,0.006294614130005603
2.128,0.08848591610727918
2.132,0.22418412748947997
2.136,0.40994966863845445
2.14,0.6131705556720757
2.144,0.8060490988540857
2.148,0.929873306052027
2.152,1.0052415543840816
2.156,0.9341994302390175
2.16,0.7998558438127662
2.164,0.58532776277253
2.168,0.39965139671986577
2.172,0.20586053276803026
2.176,0.05170949524022866
2.18,-0.04986345707844764
2.184,-0.15133865005082575
2.188,-0.22624067831291728
2.192,-0.23161728122777459
2.196,-0.2335754232007558
2.2,-0.1802369149103448
2.204,-0.11823373833351851
2.208,-0.07509634076651633
2.212,-0.028637665423197737
2.216,-0.01894036079226695
2.22,-0.008623856160493912
2.224,0.012683273065924186
2.228,-0.010078420446910496
2.232,-0.02328132636605878
2.236,0.017309496878278083
2.24,0.027070942993635317
2.244,-0.0020120495107199907
2.248,-0.016748968022581228
2.252,0.00023559675997862628
2.256,0.0013704729071710828
2.26,0.003429842822851607
2.264,-0.004467233834684666
2.268,0.014082338560780623
2.272,0.015479869027150442
2.276,-0.0023838781315432232
2.28,0.022307529690321407
2.284,0.0390831169344324
2.288,0.02405886410682509
2.292,0.023348658308432458
2.296,0.030340422374543645
2.3,0.043660786176098074
2.304,0.02670686254929696
2.308,0.052961637351661955
2.312,0.055547667891197264
2.316,0.08691517774814167
2.32,0.07653502690407113
2.324,0.10563905132233016
2.328,0.08941930638109309
2.332,0.11858787737635344
2.336,0.12885693287887048
2.34,0.1305136394701965
2.344,0.15499466780734977
2.348,0.17969792925815148
2.352,0.17886202214488378
2.356,0.17970447163562303
2.36,0.2107766411162339
2.364,0.21585646430178584
2.368,0.23477599109782657
2.372,0.2498814289760844
2.376,0.24511118003233828
2.38,0.2562572906304723
2.384,0.2860753579056714
2.388,0.28330272142387286
2.392,0.2684575637989509
2.396,0.3057237553318524
2.4,0.3024929783042804
2.404,0.2926119839072773
2.408,0.28465172203942635
2.412,0.3023721068409338
2.416,0.2918984657327231
2.42,0.30492412422656034
2.424,0.27643040187631485
2.428,0.26583392641836784
2.432,0.2487954449275334
2.436,0.24611672202558008
2.44,0.2308673136619915
2.444,0.22319557729481215
2.448,0.1911312329221358
2.452,0.17746438191037947
2.456,0.16250197731925747
2.46,0.16085402087977624
2.464,0.15392108768079119
2.468,0.12081818593204091
2.472,0.10822370099101296
2.476,0.10336775377144977
2.48,0.08628813598587323
2.484,0.08759895392124678
2.488,0.04573730239130968
2.492,0.05101994115746083
2.496,0.04334453774969457
2.5,0.02067677006051023
2.504,0.02775365268164722
2.508,0.022504904176955554
2.512,0.024620075286428664
2.516,0.03339026665673343
2.52,0.016038038660561967
2.524,0.004949724489295888
2.528,0.011941764307626855
2.532,0.02068544897932888
2.536,-0.0015071453366004278
2.54,-0.002467505452587047
2.544,0.010891209678835903
2.548,0.0019982651050185966
2.552,0.009799820538724278
2.556,0.002470531379739936
2.56,0.009047656191398207
2.564,-0.00877858083096722
2.568,0.001088420298747206
2.572,-0.001182719428359714
2.576,-0.011457111142574894
2.58,-0.015105252626841918
2.584,0.007254484682272256
2.588,-0.003213789905740888
2.592,-0.01000390648599799
2.596,-0.0008008003172232865
2.6,0.011397833911044401
2.604,-0.022721955691103905
2.608,-0.014904756778018943
2.612,-0.00918468368318859
2.616,0.014643258423886906
2.62,0.0028481426052441297
2.624,0.007688835437886491
2.628,-0.011390664637041973
2.632,-0.011187760013780674
2.636,0.004483379305747
2.64,0.0005863367313744938
2.644,0.005489835996787026
2.648,-0.0018750523904642205
2.652,0.0027825543693074765
2.656,0.001581943674846139
2.66,0.007778189590039501
2.664,0.008070461295240753
2.668,-0.016198382066608688
2.672,-0.022472260267902614
2.676,0.01001818625854882
2.68,0.011878713763274816
2.684,-0.010203197598463684
2.688,-0.018592104829215562
2.692,0.0010029749063244946
2.696,0.009333294431006283
2.7,0.018023880322611048
2.704,0.0052528948571483455
2.708,-0.0035527463351877203
2.712,-0.008638250497990448
2.716,0.0006236428967637448
2.72,-0.002130482708684981
2.724,-0.008727584419998286
2.728,0.022777156819720167
2.732,0.021442289306859694
2.736,0.016849038172014885
2.74,-0.001030828699288517
2.744,0.020426572433485585
2.748,0.023208300090083213
2.752,0.027622819775958804
2.756,0.043695532926369594
2.76,0.047253536192604
2.764,0.059662133093634176
2.768,0.07146179655781403
2.772,0.0824323009597451
2.776,0.07567685215032682
2.78,0.1086972415909939
2.784,0.1157041702272889
2.788,0.12009279651940584
2.792,0.15876809308196843
2.796,0.1650837360414447
2.8,0.16358113957929885
2.804,0.15092153103493927
2.808,0.1565640395022436
2.812,0.13457051211192908
2.816,0.12519431405299708
2.82,0.09904318047374466
2.824,0.09968950089611789
2.828,0.08180802363236696
2.832,0.054122215190118506
2.836,0.05361072818260179
2.84,0.04172366951147057
2.844,0.050537444340877556
2.848,0.03324718940047959
2.852,0.017797883153930754
2.856,0.015028475175859674
2.86,0.009110791560359032
2.864,0.003811607119170376
2.868,-0.006988378955927209
2.872,0.0009450191245692983
2.876,-0.005928805849604049
2.88,-0.011571290096956753
2.884,0.005664650970576928
2.888,0.00423186497016242
2.892,-0.01768727982137868
2.896,-0.0011281388676629173
2.9,0.01000983281973196
2.904,0.010619769098331802
2.908,0.010272203907008504
2.912,0.0003947869330440187
2.916,-0.008455301549882666
2.92,-0.010879952297965624
2.924,0.0032406255356300247
2.928,0.0029801218278888778
2.932,0.010141247617724593
2.936,0.0031757016395509447
2.94,-0.020414187349220392
2.944,-0.05213474338126961
2.948,-0.07348366879023312
2.952,-0.10378361079767635
2.956,-0.13765654846871445
2.96,-0.15215773149711398
2.964,-0.12727271745109758
2.968,-0.08989627533818761
2.972,-0.020028522676335456
2.976,0.08796742411526592
2.98,0.21339581839756205
2.984,0.39073302642744023
2.988,0.5906777369587073
2.992,0.7747057763817965
2.996,0.9326310373498596
3.0,1.0139276535377821
3.004,0.941694091903224
3.008,0.7915798461403946
3.012,0.5987077899128125
3.016,0.4123397946193358
3.02,0.2285023609102579
3.024,0.07496830872829742
3.028,-0.03541772134060283
3.032,-0.1732549127850281
3.036,-0.2119160786312399
3.04,-0.2300223187642626
3.044,-0.24338885829797224
3.048,-0.1892592826640657
3.052,-0.13346663801268532
3.056,-0.08170124949584211
3.06,-0.038979752806937155
3.064,-0.0005221903952883841
3.068,0.013365376951866603
3.072,-0.004485475735872219
3.076,0.019312010028791272
3.08,0.0011687700799238188
3.084,0.018707205997795972
3.088,0.0006095468717969556
3.092,0.003307435029521603
3.096,0.006219438883994667
3.1,0.03506099560151934
3.104,0.012661695954955237
3.108,-0.0018462865686042816
3.112,0.016231702489828057
3.116,0.004517576523155223
3.12,0.005156517560873177
3.124,0.021431103279058006
3.128,0.015372392954263025
3.132,0.02104424908604233
3.136,0.022132672901802986
3.14,0.029687748865748882
3.144,0.03555184243856171
3.148,0.01761759876369727
3.152,0.05009178318846473
3.156,0.04084025617281617
3.16,0.04430000600810785
3.164,0.06705032760699034
3.168,0.0782410820558243
3.172,0.08107834122943508
3.176,0.10775236253679159
3.18,0.09821618150256972
3.184,0.12046057967277601
3.188,0.1321759624194335
3.192,0.15153991169453182
3.196,0.1691237495864482
3.2,0.1707751222782086
3.204,0.20262866391773235
3.208,0.21036865631691343
3.212,0.2047899719822163
3.216,0.2175026915100331
3.22,0.24954175964436437
3.224,0.2590214964541574
3.228,0.270555266543084
3.232,0.2802773428373273
3.236,0.2902276415290325
3.24,0.30317369368112806
3.244,0.2865142143896491
3.248,0.2879620355652984
3.252,0.2888941616880785
3.256,0.3009485888957829
3.26,0.3068610664937741
3.264,0.2846397823907992
3.268,0.2567697434209339
3.272,0.25600502412913856
3.276,0.2545561214839476
3.28,0.24591396939689322
3.284,0.23497122680331786
3.288,0.22617008835099375
3.292,0.2087722482543962
3.296,0.20807502390064478
3.3,0.17630417095505474
3.304,0.15990847463556407
3.308,0.15895160126595428
3.312,0.12476304398591262
3.316,0.13043980316219603
3.32,0.11457824528367318
3.324,0.09977156083937144
3.328,0.10557990708961748
3.332,0.07273661876081214
3.336,0.08966540205666129
3.34,0.057766813404243667
3.344,0.03906052971743773
3.348,0.045171580095601405
3.352,0.027152832358442017
3.356,0.024601199029998508
3.36,0.031005164737659838
3.364,0.028166266445059436
3.368,0.01256781703371597
3.372,0.02538868656201176
3.376,0.02430390978411389
3.38,0.02473964137928854
3.384,0.01369925756336039
3.388,0.020399050967240158
3.392,-0.013398178206230316
3.396,0.0011195764313375023
3.4,-0.005276134471993739
3.404,0.0038547729768409165
3.408,-0.0036390861447237904
3.412,-5.413864135384071e-05
3.416,0.020058797681061585
3.42,-0.0007512668209030276
3.424,0.004856631543467757
3.428,-0.0017801100296181184
3.432,0.001164138689130415
3.436,0.0003635247214376266
3.44,0.004707903153038339
3.444,0.011818395710920231
3.448,0.016594816677886984
3.452,0.003184017979163971
3.456,0.005958861186796174
3.46,-0.011463176185578478
3.464,-0.0008463623633307001
3.468,0.009425841954058154
3.472,0.008675832611796871
3.476,0.002127385692276434
3.48,0.00887178132252242
3.484,0.004913079789229302
3.488,0.012006774862471625
3.492,0.0028961214784168294
3.496,-0.00355526976173219
3.5,0.00335956627982722
3.504,-0.029305170034990793
3.508,0.003829377550542153
3.512,-0.03648376948209016
3.516,-0.017234361591892455
3.52,0.004517950889567795
3.524,0.004775664635607431
3.528,-0.011623603631285144
3.532,-0.007119615627765475
3.536,0.013708350322272966
3.54,-0.004834219955889856
3.544,0.02244151231926779
3.548,5.116101093786499e-06
3.552,0.004127194370065815
3.556,0.016256678753294198
3.56,0.0014712136530977222
3.564,-0.009736316847519893
3.568,-0.000597989149908061
3.572,0.0004901693057181632
3.576,-0.012249252426602398
3.58,-0.00030674762261703563
3.584,-0.0038876809377049624
3.588,0.01465097258435676
3.592,0.008410335978063484
3.596,0.008894492888259069
3.6,0.01554768415369762
3.604,0.02517035095538191
3.608,0.037048286670950774
3.612,0.030522347774628707
3.616,0.041408042263800106
3.62,0.07565367703605623
3.624,0.07438381813618336
3.628,0.0788185479418547
3.632,0.11179178027795902
3.636,0.1254411226011359
3.64,0.11720401636561834
3.644,0.14396987728088265
3.648,0.15500002971702978
3.652,0.1537197485204333
3.656,0.15481368790177552
3.66,0.1292677064467673
3.664,0.1381225181200098
3.668,0.12058625272315904
3.672,0.10565054643166213
3.676,0.10494984660945943
3.68,0.09651765440680443
3.684,0.0855856289537012
3.688,0.06771878501922754
3.692,0.04181529791219084
3.696,0.036419403538424204
3.7,0.03224261755207013
3.704,0.01910772156069161
3.708,0.014010705288600461
3.712,0.01702663176746074
3.716,0.005334549183154157
3.72,-0.003396478325697097
3.724,-0.0016481552888230932
3.728,0.007898329133503804
3.732,0.000979127289665062
3.736,0.00396532679611263
3.74,0.007026549513047591
3.744,-0.003564766583492529
3.748,0.007663397685850196
3.752,0.0038424770002106813
3.756,-0.01231992898695366
3.76,0.014437249173208488
3.764,-0.005001523980351085
3.768,-0.016555200946892445
3.772,-0.010490830227497316
3.776,-0.010405289075885218
3.78,-0.0002537448881805396
3.784,-0.005360707847730718
3.788,-0.010921398306593832
3.792,-0.012340561160487575
3.796,-0.03536540996886367
3.8,-0.06588765245280208
3.804,-0.10059255427401205
3.808,-0.1286595466575982
3.812,-0.16751797532623677
3.816,-0.13455144024614699
3.82,-0.10874961013518417
3.824,-0.016410793258062037
3.828,0.0806958911064441
3.832,0.22240942549204717
3.836,0.39337185729597784
3.84,0.5825385401666826
3.844,0.7744567633177952
3.848,0.9381700638059535
3.852,0.993894109564931
3.856,0.9567953315385873
3.86,0.8289272715175054
3.864,0.6192343173049346
3.868,0.42728024884939547
3.872,0.24106682617798963
3.876,0.07156251894677555
3.88,-0.03377937175031069
3.884,-0.13642285120439487
3.888,-0.21298236639873158
3.892,-0.2529538954925811
3.896,-0.24187170001763492
3.9,-0.19288196579440964
3.904,-0.12264675970384892
3.908,-0.08398147877035592
3.912,-0.03237863348485393
3.916,-0.02774206656723629
3.92,-0.007273281036970884
3.924,-0.00011195742138793451
3.928,0.02468318847447793
3.932,-0.01297463636268037
3.936,0.015877897339466606
3.94,0.003026303846131645
3.944,0.006090329796264242
3.948,0.0037253662022537415
3.952,0.007691381544328914
3.956,0.002577005045123819
3.96,0.019723989897027817
3.964,0.001924853594755323
3.968,0.019395245984709673
3.972,0.003534802107387205
3.976,0.011652645561922987
3.98,0.004235658727898996
3.984,0.02268411692881627
3.988,0.03629903912748153
3.992,0.025380816117265833
3.996,0.02914128545884636
4.0,0.02562268654754256
4.004,0.040886687434665135
4.008,0.03445666797742993
4.012,0.049287994469564736
4.016,0.06956517803145591
4.02,0.09022342272093409
4.024,0.11570735018932277
4.028,0.09314923997384385
4.032,0.12553734425756397
4.036,0.12649027332392265
4.04,0.13601506025351195
4.044,0.1558192539468923
4.048,0.16643185180239553
4.052,0.18143171241885764
4.056,0.19077900725619526
4.06,0.1952439922345878
4.064,0.20777707780246982
4.068,0.243150027991823
4.072,0.24645960476567924
4.076,0.25487197730369243
4.08,0.27132318554846563
4.084,0.28820839621886046
4.088,0.28953628535652093
4.092,0.2869604057080832
4.096,0.3097784316730596
4.1,0.3154324169090962
4.104,0.3048011370145707
4.108,0.30789304810333257
4.112,0.3069951545614735
4.116,0.3004820019307665
4.12,0.28821518069809393
4.124,0.27937020843888527
4.128,0.2684730800052315
4.132,0.24094925177007048
4.136,0.24652780346464423
4.14,0.21271811211494043
4.144,0.20445456073283738
4.148,0.21113946367777522
4.152,0.19199284209578685
4.156,0.18392926876231636
4.16,0.15196087838809233
4.164,0.12909739561877487
4.168,0.12461983695474596
4.172,0.11503131895358158
4.176,0.10246802218870692
4.18,0.10143765336840047
4.184,0.07571971639455953
4.188,0.07292571028250665
4.192,0.05044686474308623
4.196,0.05661535647304665
4.2,0.04475534494101293
4.204,0.030640713611487423
4.208,0.029957325145301795
4.212,0.0253650703438267
4.216,0.02005800836424662
4.22,0.036631198834957024
4.224,0.01463972221075705
4.228,0.01038271462534863
4.232,-0.010519780151241758
4.236,-0.00047172419638593505
4.24,0.00418810356325169
4.244,-0.001404215541235352
4.248,0.01815208474702878
4.252,0.001774045291330084
4.256,0.01557072491551656
4.26,0.00271146397581198
4.264,0.0019948183830436972
4.268,0.00036099418348348427
4.272,0.0009932217113338235
4.276,0.017913913736086876
4.28,-0.022647919777623395
4.284,-0.019604152527626505
4.288,-0.0051250749542455145
4.292,0.00037242013219482994
4.296,0.00706822872754491
4.3,0.004853143495240598
4.304,-0.003753599209414114
4.308,0.010254618494455274
4.312,0.010348051228083415
4.316,0.0018735583171767079
4.32,0.009650205842001781
4.324,0.0027436784734751474
4.328,-0.005601506458953507
4.332,0.0069900991552252064
4.336,0.0011198164701680085
4.34,3.360789853381128e-05
4.344,0.014764255229882691
4.348,-0.024445706400961352
4.352,-0.014061845248811532
4.356,-0.011663824437793652
4.36,-0.00326835338382099
4.364,-0.0019200257102678635
4.368,-0.01402385389020557
4.372,-0.008136667602578718
4.376,-0.005876560125811234
4.38,0.028816225166179404
4.384,0.024437899241591256
4.388,0.005354688848179049
4.392,0.009985374566447715
4.396,0.007600493396530836
4.4,0.007003869049054388
4.404,0.033569294751475805
4.408,0.03511357419341557
4.412,0.056204281599984696
4.416,0.05435949035251454
4.42,0.07696187213344492
4.424,0.1005919715513285
4.428,0.11685086890420314
4.432,0.13018040154952978
4.436,0.12352358453896387
4.44,0.15316070056716988
4.444,0.14108593136506287
4.448,0.15614446006956273
4.452,0.14663578297808522
4.456,0.12633481732490548
4.46,0.12721331315905662
4.464,0.12191382293916664
4.468,0.11068924703533259
4.472,0.08869976533076264
4.476,0.09101166187065288
4.48,0.07205234881321493
4.484,0.04689706937333658
4.488,0.04598001189457281
4.492,0.0485148347947963
4.496,0.04116932172885489
4.5,0.0032553397851545294
4.504,0.0016436603946958263
4.508,0.022315919551898367
4.512,-0.0056013287042624305
4.516,-0.00998598123797655
4.52,-0.002808601918847137
4.524,0.005470896942019441
4.528,-0.0002599709107243645
4.532,-0.006057170245554691
4.536,-0.006485528635082083
4.54,-0.006980266504463278
4.544,-0.00871730437183137
4.548,0.022857543571171715
4.552,0.0029963533930600157
4.556,0.008877926808083844
4.56,-0.004888194780260274
4.564,-0.001873104424583848
4.568,-0.00721633534523031
4.572,-0.026873203921066787
4.576,-0.01510224105956429
4.58,-0.02228415711695102
4.584,-0.03374625235850007
4.588,-0.037757586347627756
4.592,-0.03718176336156545
4.596,-0.08438388791491166
4.6,-0.10594282744138374
4.604,-0.1385320682706772
4.608,-0.13560216596969465
4.612,-0.12471104165922944
4.616,-0.05522907002150597
4.62,0.028033381764420794
4.624,0.1257836282386903
4.628,0.28447475810949746
4.632,0.4687399671784962
4.636,0.6613466062590597
4.64,0.8414083592153717
4.644,0.9618658326086624
4.648,0.9953826774045084
4.652,0.9117680751500016
4.656,0.7333703432198684
4.66,0.5374258849217252
4.664,0.3432937243666445
4.668,0.17198742742543532
4.672,0.04092767736636907
4.676,-0.07594751219358387
4.68,-0.1873346128134631
4.684,-0.21567340276324243
4.688,-0.25062326309974514
4.692,-0.20660330201441177
4.696,-0.16215300737104704
4.7,-0.1080116780318641
4.704,-0.0744609699366846
4.708,-0.02767787662696806
4.712,-0.02561236131218847
4.716,0.006629253534543559
4.72,0.014750427216025066
4.724,-0.007445863789768265
4.728,0.003976769458851663
4.732,-0.005946970367849305
4.736,-0.0045788153659068916
4.74,0.009945930860470497
4.744,0.0024342163544502056
4.748,0.02098528256962416
4.752,-0.00028364371090826637
4.756,0.015696714872019797
4.76,0.008095300295707196
4.764,0.01679249648671452
4.768,0.006419093971531135
4.772,0.01284383766864473
4.776,0.015079558480934042
4.78,0.011271392264654172
4.784,0.030209721641686057
4.788,0.03466506689778228
4.792,0.039344086392015545
4.796,0.05474851339416667
4.8,0.06061344126930744
4.804,0.04992108271849494
4.808,0.06578927579825627
4.812,0.06506418823378203
4.816,0.08162877480195999
4.82,0.08632927016276525
4.824,0.12025903014956954
4.828,0.1201693509805492
4.832,0.12748890832212512
4.836,0.15530265781173042
4.84,0.13579323805615515
4.844,0.15178066773945903
4.848,0.19442582085980462
4.852,0.2015583001953163
4.856,0.21768806334778698
4.86,0.21568729468745418
4.864,0.24181338163818936
4.868,0.2742917298100472
4.872,0.27362169833324895
4.876,0.2769193679061026
4.88,0.27921849483338723
4.884,0.28644116621851423
4.888,0.27413794324394325
4.892,0.3012194888644519
4.896,0.30842009125988157
4.9,0.28361497635200245
4.904,0.2902580118734649
4.908,0.28094130027052205
4.912,0.27673138180633455
4.916,0.279128445330569
4.92,0.2484413554672013
4.924,0.26477030804602847
4.928,0.2543455639377167
4.932,0.23151310027876965
4.936,0.1956805723992909
4.94,0.19644472827102716
4.944,0.20432543976035694
4.948,0.14967100727758148
4.952,0.1594859010990462
4.956,0.13689975275738092
4.96,0.1428665379141265
4.964,0.1147063417398104
4.968,0.11276019124606902
4.972,0.10235323691683339
4.976,0.1038195525858675
4.98,0.07301155370773568
4.984,0.06923435600418329
4.988,0.041911569809938674
4.992,0.06079970507283173
4.996,0.03424543447646532
5.0,0.029984490545557213
5.004,0.029853876688034815
5.008,0.009624455726218593
5.012,0.023356100819294973
5.016,0.027139539417199758
5.02,0.017314673778778294
5.024,-0.00411576309531953
5.028,0.008335842352548056
5.032,0.015156111718444519
5.036,-0.012569152062540773
5.04,-0.00579315720001793
5.044,0.01269258753530889
5.048,0.005793924537310345
5.052,0.006540155871224274
5.056,0.020477007974233546
5.06,0.006139623742493502
5.064,0.007695160270513263
5.068,0.027958934122376183
5.072,-0.0014926959928082022
5.076,-0.007492827125707304
5.08,0.004641626827530053
5.084,0.004660294715743704
5.088,-0.005067404758576531
5.092,-0.010177344879796704
5.096,0.023205387664874025
5.1,0.003345938406074114
5.104,-0.007267042721261609
5.108,0.009199239714065789
5.112,-0.0010630488606900013
5.116,-0.0025087254791377996
5.12,0.005636889415840208
5.124,-0.012908807165612903
5.128,0.0035335268320016177
5.132,0.01913523291556881
5.136,0.004667139797800961
5.14,-0.0037554055046955504
5.144,-0.005060286640387917
5.148,-0.004083852629042585
5.152,-0.002502845789132701
5.156,-0.0037091011111196823
5.16,0.009290119848620673
5.164,-0.01710350504938801
5.168,0.009021384582299915
5.172,-0.0031096458536790782
5.176,0.004916480378065826
5.18,-0.009403781186674919
5.184,0.01624564265823604
5.188,0.017030787574910482
5.192,0.016488217165057883
5.196,-0.00502535540058063
5.2,0.022781147177232907
5.204,0.02426665867469593
5.208,0.011445003705430373
5.212,0.036210155462018
5.216,0.050749050471786225
5.22,0.06488843678148001
5.224,0.0746078911413155
5.228,0.09007050855572425
5.232,0.11639766502323953
5.236,0.1278415659685498
5.24,0.09941493922516295
5.244,0.13518053869181168
5.248,0.14402390999464285
5.252,0.13197522569720233
5.256,0.1504865429058688
5.26,0.15829982310083585
5.264,0.12771382302770748
5.268,0.1317406638918925
5.272,0.10676091142832236
5.276,0.09530582136661546
5.28,0.1023004433969162
5.284,0.06776495330606266
5.288,0.0642778688297606
5.292,0.02868272767001671
5.296,0.05532546707127444
5.3,0.033730157661364696
5.304,0.018557730954875243
5.308,0.020372861003429
5.312,-0.0038803391274433875
5.316,0.018787267615747366
5.32,0.0013838069253597597
5.324,0.0009524054046723481
5.328,-0.003027959194761858
5.332,-0.004644960243229579
5.336,0.0076430462464976215
5.34,0.0029659665301143986
5.344,0.006749237850773497
5.348,4.071795918570239e-05
5.352,0.005201623300647353
5.356,-0.004151769561500173
5.36,0.022316132015979737
5.364,-0.0156703869020844
5.368,0.012610270329200186
5.372,0.013659580128806671
5.376,-0.008628241016772167
5.38,0.021837817794443236
5.384,0.008313963775568856
5.388,0.004671547566558918
5.392,-0.012908349723688714
5.396,-0.03157880083900015
5.4,-0.057952663555403024
5.404,-0.0864462787607643
5.408,-0.1102625978736256
5.412,-0.1429104226000733
5.416,-0.14973477605040836
5.42,-0.0995782271968798
5.424,-0.0387541095071205
5.428,0.04461226193259341
5.432,0.16233064958564708
5.436,0.3064025139367526
5.44,0.4893777054188784
5.444,0.693784872894902
5.448,0.8637957458619054
5.452,0.9877266721819151
5.456,0.985857563294949
5.46,0.8791939190376968
5.464,0.6768444287505281
5.468,0.48796301878492515
5.472,0.3159439982939888
5.476,0.13205486715813639
5.48,0.006968622887647321
5.484,-0.1203493896116611
5.488,-0.17548699083297573
5.492,-0.239466821649436
5.496,-0.2401224212709371
5.5,-0.18546561486869562
5.504,-0.13696368703351322
5.508,-0.0973819262218563
5.512,-0.05566333120570734
5.516,-0.025478794538919346
5.52,-0.003182789138177596
5.524,-0.003413496697933234
5.528,-0.0041284470891609195
5.532,0.015290635674378635
5.536,-0.00012268079716331736
5.54,0.024368246328602003
5.544,0.0026934700060764114
5.548,0.02015423800847425
5.552,0.006517567699814439
5.556,0.01337295662113601
5.56,-0.0025173526757775464
5.564,-0.0026021373571255774
5.568,0.01199961122655541
5.572,0.019058912832364668
5.576,0.011697867732392451
5.58,0.0009553926071685769
5.584,0.003196916576287826
5.588,0.006020707257581222
5.592,0.006678149526369123
5.596,0.03013828721410344
5.6,0.04566478529677617
5.604,0.04038417798217834
5.608,0.02479649110399667
5.612,0.05319058157549756
5.616,0.06200919004988967
5.62,0.09399062063443897
5.624,0.06870459478443296
5.628,0.09044604521641102
5.632,0.1232795733261303
5.636,0.12331902516518574
5.64,0.13769684045040573
5.644,0.14699392693359362
5.648,0.16334309389317625
5.652,0.1822766181270001
5.656,0.18095462666309628
5.66,0.21228545378203015
5.664,0.2039379815547917
5.668,0.23461526471375724
5.672,0.24607183110219072
5.676,0.25015390061307635
5.68,0.2669993220262934
5.684,0.27059709401323295
5.688,0.27421698959179164
5.692,0.28787602894842307
5.696,0.28509639925471314
5.7,0.30224510586117054
5.704,0.2884989909276372
5.708,0.30618540242524583
5.712,0.28441757011651164
5.716,0.285891052534531
5.72,0.2788728804535848
5.724,0.29029854054925913
5.728,0.27078924635531215
5.732,0.25449065963063877
5.736,0.249588781948995
5.74,0.2105975813049265
5.744,0.21758999404031767
5.748,0.22384340074105472
5.752,0.1907412522959444
5.756,0.17554796763535094
5.76,0.16588875582940055
5.764,0.15515938946645202
5.768,0.11243219458281509
5.772,0.10232403727632856
5.776,0.10863451287735407
5.78,0.08749525939747992
5.784,0.09666679268534044
5.788,0.07012805211424565
5.792,0.04451934459805437
5.796,0.04262396514758337
5.8,0.020088745798265983
5.804,0.0383417038737707
5.808,0.03267593281605765
5.812,0.02492626894062929
5.816,0.035254012302570234
5.82,0.032372937337442675
5.824,0.015177555595735344
5.828,-0.007457954485644052
5.832,0.01752689377195274
5.836,0.014776212174080965
5.84,0.010537400751197811
5.844,0.015784041300187873
5.848,-0.006891832123691978
5.852,0.023853437162260464
5.856,-0.006631688567087648
5.86,0.009808004794258075
5.864,-0.015074846116155763
5.868,-0.007914587248022175
5.872,0.016228061616345164
5.876,-0.0017980337255157925
5.88,0.009013171071021113
5.884,0.0028313790914605078
5.888,-0.0007044010257537478
5.892,0.013894854521776408
5.896,-0.0021774213348077004
5.9,-0.017668681419181667
5.904,-0.007931353293984783
5.908,0.0055850644281712405
5.912,0.004007703586075531
5.916,-0.015632981325500638
5.92,-0.007216723771609458
5.924,-0.00579837316603722
5.928,-0.0036414870880360217
5.932,-0.013749934126609333
5.936,-0.006277341216222528
5.94,-0.007281722215385741
5.944,0.007718331949229212
5.948,0.008093260650363483
5.952,-0.0014566965275817489
5.956,-0.003919390959386791
5.96,0.0014000595248615114
5.964,-0.008164883010775907
5.968,-0.011467031303702153
5.972,-0.009399833747985949
5.976,-0.00634338938275132
5.98,-0.011625188672797285
5.984,0.001639551079713067
5.988,0.007333962505008849
5.992,-0.015801245614379806
5.996,0.0003801281844875555
6.0,-0.001967310740188525
6.004,0.0038224648581755044
6.008,0.0005677309321734615
6.012,-0.013373206621758449
6.016,-0.01073339676094962
6.02,0.0032901824827689845
6.024,0.01491560846450389
6.028,-0.015174051905399383
6.032,0.013683167944401557
6.036,0.026524332698561928
6.04,0.018866305722293968
6.044,0.03322295594315793
6.048,0.029692521375767014
6.052,0.04622568551871161
6.056,0.04347412618233837
6.06,0.049776879967924056
6.064,0.09698502177713397
6.068,0.09220541425078357
6.072,0.11139213163815066
6.076,0.11453655549689773
6.08,0.12449852928951576
6.084,0.14408564571321691
6.088,0.1422528921424198
6.092,0.15327174790899448
6.096,0.15018382212674453
6.1,0.1415445224005566
6.104,0.13044704176403035
6.108,0.13133056180235114
6.112,0.09095515714309867
6.116,0.08657799956562626
6.12,0.08413244193215713
6.124,0.07194563990024407
6.128,0.03286172240252455
6.132,0.03330875295893364
6.136,0.0410617264932539
6.14,0.02528515279193283
6.144,0.016431926649428243
6.148,0.00793736008849661
6.152,0.0030484864684563995
6.156,0.007452512503028679
6.16,0.0004327551402331705
6.164,0.0014384029585119062
6.168,0.0019317233507858097
6.172,-0.006094340344499761
6.176,0.005722086833659826
6.18,0.02937056529473905
6.184,-0.017643310066866466
6.188,0.003308561242884981
6.192,-0.007565836084000739
6.196,0.005792486666840768
6.2,0.0004742800215457327
6.204,0.007619160075112291
6.208,0.011734501839584336
6.212,0.0018129469408339953
6.216,0.010848265770984127
6.22,-0.02513890311492126
6.224,0.010718676230064731
6.228,-0.009760487727125225
6.232,-0.019215045674016343
6.236,-0.06892178134538526
6.24,-0.09965227389609224
6.244,-0.12361790382328944
6.248,-0.1451461562855534
6.252,-0.13727310943107907
6.256,-0.09568217535145458
6.26,-0.06361198809189042
6.264,0.05056757636137707
6.268,0.15867295835435058
6.272,0.31185564840812074
6.276,0.489510760601205
6.28,0.7129424309757808
6.284,0.8600636632706012
6.288,0.9933456520848931
6.292,0.9702565210154908
6.296,0.8800580251218741
6.3,0.699725628725029
6.304,0.5064808707111312
6.308,0.29795451069233714
6.312,0.12765604165948144
6.316,-0.005042526005582663
6.32,-0.09638418272865301
6.324,-0.1863547366793705
6.328,-0.24261225936526115
6.332,-0.24491731947752998
6.336,-0.2230400875079421
6.34,-0.14658313360349753
6.344,-0.11047222243760488
6.348,-0.04123412430891707
6.352,-0.020398202360398462
6.356,0.015833416599742925
6.36,-0.013267541788292966
6.364,-0.0011690885851852444
6.368,0.01861543642168495
6.372,0.01294284916343286
6.376,-0.005579471846144197
6.38,0.004038377975061791
6.384,0.0023368832349883756
6.388,0.005783664951437867
6.392,-0.003219029385075096
6.396,0.003865570701880613
6.4,-0.010008442040345933
6.404,0.008798157194222708
6.408,0.013726950551372501
6.412,0.009084818854694636
6.416,-0.0022556786852979908
6.42,0.02677363704041094
6.424,0.02404101953572957
6.428,0.017214374626751065
6.432,0.026375588294327866
6.436,0.019565283157778994
6.44,0.030442670276079872
6.444,0.04222290163557129
6.448,0.06760558561606284
6.452,0.05748869704231236
6.456,0.07970282845271016
6.46,0.07818606611345741
6.464,0.09714791622527759
6.468,0.10514367955991405
6.472,0.12790536671403027
6.476,0.12708750776168407
6.48,0.130507824172791
6.484,0.14661846391770234
6.488,0.16958091516044085
6.492,0.17695803493367884
6.496,0.20800080973935456
6.5,0.21339322911036887
6.504,0.2554438550923479
6.508,0.2272509818539172
6.512,0.25866868592814996
6.516,0.2562285714095092
6.52,0.2721318280495969
6.524,0.2865485505328567
6.528,0.26831211659054977
6.532,0.29860861579035597
6.536,0.3180987140346068
6.54,0.29546540691697454
6.544,0.3016110917064959
6.548,0.3063774010288095
6.552,0.2897607102206686
6.556,0.2791088642515484
6.56,0.2540462765118133
6.564,0.2736142504551572
6.568,0.2551607252296343
6.572,0.23413098883957645
6.576,0.2325692256745579
6.58,0.21180159807147722
6.584,0.1981901589165682
6.588,0.1950815484689148
6.592,0.1610858498733418
6.596,0.17048634437797613
6.6,0.1318414752663009
6.604,0.12540796749820157
6.608,0.13802124279185124
6.612,0.11746860213499268
6.616,0.09530449177115012
6.62,0.07384803223102937
6.624,0.06771706396289427
6.628,0.06435090406153449
6.632,0.05545619446075879
6.636,0.04647646788157416
6.64,0.04019624385041636
6.644,0.03225843468956274
6.648,0.014612989349393134
6.652,0.01917999613436666
6.656,0.029430314895050717
6.66,0.0031093085908215617
6.664,0.011917949435142705
6.668,0.0030928518773005263
6.672,0.01028277126107921
6.676,0.003512799961467146
6.68,0.020706568804953175
6.684,0.00979227640757989
6.688,-0.009376561493641033
6.692,0.009655146145789769
6.696,-0.005446564231182385
6.7,-0.003983934950534938
6.704,0.004516282164820946
6.708,-0.0038609280592236898
6.712,0.009733416133260482
6.716,-0.007135885673461954
6.72,-0.005731278952012056
6.724,-0.00622130820142484
6.728,-0.00540214534644179
6.732,0.011179493118581163
6.736,0.006425473088998844
6.74,0.017199602963829184
6.744,0.022748936377808938
6.748,-0.01025503648974392
6.752,0.0007414438251319833
6.756,-0.011735553857805356
6.76,-0.007757399842914009
6.764,-0.006287744630310889
6.768,-0.010562436099420222
6.772,-0.010512560820121175
6.776,-0.0014384898782334263
6.78,-0.012164176510816431
6.784,0.008423388839081999
6.788,-0.009175928342525971
6.792,0.028097163559931797
6.796,-0.004511998661458665
6.8,0.0007232327095885799
6.804,-0.012947606408708299
6.808,0.017072362907424126
6.812,0.011217470292955806
6.816,0.0030124281824365547
6.82,-0.01338660527730698
6.824,0.002256113787878273
6.828,-0.010946875383527191
6.832,0.015090075898151811
6.836,0.008885220445043375
6.84,0.0022691871531896873
6.844,-0.02223964101774733
6.848,-0.006489281545611299
6.852,0.012011716377711364
6.856,0.01981007688163791
6.86,0.022293296737651208
6.864,2.351542000535861e-06
6.868,0.02507644048007815
6.872,0.03994844094544231
6.876,0.022635542277434063
6.88,0.05024254853203887
6.884,0.06567388955754326
6.888,0.073714117006335
6.892,0.0726424624463352
6.896,0.10233015362372128
6.9,0.11592805923823615
6.904,0.12968841906778586
6.908,0.13505589543670837
6.912,0.14265901658462843
6.916,0.1494948341672852
6.92,0.15331188571850235
6.924,0.14110732510187654
6.928,0.1319424327124153
6.932,0.12606147410866583
6.936,0.09299186944523252
6.94,0.10282919300488241
6.944,0.08352749631347452
6.948,0.06975752603896654
6.952,0.06574430271623997
6.956,0.02475790561506822
6.96,0.014315594498333216
6.964,0.028262087334467792
6.968,0.018576043814420743
6.972,0.01498061521979719
6.976,0.004595712514775517
6.98,0.012879439468482995
6.984,0.013438756005514207
6.988,0.007483245436510172
6.992,-0.0009520444717433167
6.996,-0.020065402750809473
7.0,0.008294481890851734
7.004,0.012566656828978383
7.008,0.006643176761205555
7.012,-0.008687496807507604
7.016,0.006796473782921241
7.02,0.008635939670263484
7.024,0.015603690618755597
7.028,-0.008754251286796145
7.032,-0.0022669166705275513
7.036,0.007440240372932422
7.04,0.00041218824425135576
7.044,-0.011831490142849184
7.048,0.0018751584515708138
7.052,-0.0008873884413579435
7.056,-0.015832196572039114
7.06,-0.033458788795155084
7.064,-0.06738666354161849
7.068,-0.08547622692059877
7.072,-0.14081776273987337
7.076,-0.1522382793558596
7.08,-0.13433532566640263
7.084,-0.08513840019107921
7.088,-0.041949242565927705
7.092,0.05373865419752214
7.096,0.17305641644716485
7.1,0.35860149163154187
7.104,0.5435988517495912
7.108,0.7521724643343101
7.112,0.9247442797357645
7.116,0.9903310309903589
7.12,0.9702304477539607
7.124,0.8373728474567302
7.128,0.6573493689782451
7.132,0.4490499275915006
7.136,0.2488362374530256
7.14,0.09691703703514727
7.144,-0.018839944541787404
7.148,-0.1283860347303671
7.152,-0.2210812216393544
7.156,-0.2372622818784927
7.16,-0.24781810113600092
7.164,-0.18031712425908397
7.168,-0.125289805563887
7.172,-0.0774715105810609
7.176,-0.03894188022649186
7.18,-0.019358342692111934
7.184,0.0007153717808641427
7.188,-0.005226792953453803
7.192,0.0024770332921818026
7.196,0.009465825980633827
7.2,-0.0045035835692345295
7.204,-0.004683981199041711
7.208,-0.010027117230147382
7.212,-0.008180450819733018
7.216,-0.015136348548375334
7.22,0.011292964317818404
7.224,0.023126502772668527
7.228,0.020564960745343565
7.232,-0.008402944851662222
7.236,0.016969058699129378
7.24,0.02616898321656565
7.244,0.010023938691598108
7.248,0.01872209265930349
7.252,0.0012723956545464717
7.256,0.028247923106510024
7.26,0.019816401519367557
7.264,0.038016212778909715
7.268,0.026721922948704145
7.272,0.054866035825854816
7.276,0.0676097157948336
7.28,0.05830637464977029
7.284,0.06439793610249399
7.288,0.06468406117533443
7.292,0.09487978680203255
7.296,0.10380425919712025
7.3,0.10689545738667024
7.304,0.1403405382337103
7.308,0.14522200896447357
7.312,0.15324768935500538
7.316,0.17295918530701115
7.32,0.2037602987449849
7.324,0.2134718057197648
7.328,0.2201887060560965
7.332,0.24116899715824278
7.336,0.23608895365445368
7.34,0.2597647352603025
7.344,0.27148034604594884
7.348,0.2745124845541492
7.352,0.29124092655152894
7.356,0.2850879791077364
7.36,0.302214583532985
7.364,0.3049971368301262
7.368,0.27076217111853734
7.372,0.31037638463554706
7.376,0.26464881286681974
7.38,0.28379236899724397
7.384,0.2933073541016791
7.388,0.2713833769476083
7.392,0.2499528988856507
7.396,0.24246887586523913
7.4,0.2513934155258869
7.404,0.20875898029552095
7.408,0.22545573434533014
7.412,0.1993594219692574
7.416,0.17348952921945748
7.42,0.16503957188757448
7.424,0.14629178813034804
7.428,0.15102025659317608
7.432,0.13602168095204395
7.436,0.09841380684670442
7.44,0.09914683170828766
7.444,0.08287561322662383
7.448,0.09357063985395683
7.452,0.05710100284182903
7.456,0.07746485622933211
7.46,0.05276276448592614
7.464,0.03398555106849808
7.468,0.03214825816505138
7.472,0.024988606183338744
7.476,0.015063150327743574
7.48,0.024230503586565245
7.484,0.007088598405069129
7.488,-0.005795024843192914
7.492,0.00935094129558973
7.496,-0.007299392121788699
7.5,0.0011780611674129709
7.504,-0.0020819662980056256
7.508,-0.003101194941224273
7.512,0.024472722789048135
7.516,0.004091514202843812
7.52,0.005223799312375686
7.524,-0.015602491619099958
7.528,-0.0048637866788164945
7.532,0.003444050945065772
7.536,-0.009257064161636387
7.54,0.009832247221566882
7.544,-0.011458950673669002
7.548,-0.0024371380383210605
7.552,-0.005542282726487368
7.556,0.0018791294392117967
7.56,-0.006231114882097222
7.564,-0.0025817385657768404
7.568,-0.0022687960282945074
7.572,-0.007277032312953697
7.576,0.004898933806682935
7.58,0.0024181245709207376
7.584,-0.0008618670809397925
7.588,-0.004287487023285662
7.592,0.007977405497552614
7.596,-0.002350021301220921
7.6,-0.0030612216407931705
7.604,0.0010508531674693902
7.608,0.01696857426193492
7.612,-0.013401700401419938
7.616,0.007699885638611241
7.62,-0.018930685278930014
7.624,0.002173740740520849
7.628,0.015752211452985762
7.632,0.004889124230307039
7.636,0.0017110298103311268
7.64,-0.005594927677299671
7.644,0.0003294267603969335
7.648,-0.0024838455703698656
7.652,-0.0077900845087348555
7.656,-0.002770022439160293
7.66,0.0022156685126534315
7.664,-0.007265115089527285
7.668,-0.0073662275532069155
7.672,-0.012440487008129435
7.676,0.0057964520005885384
7.68,0.008447238448625648
7.684,0.006941576795518025
7.688,0.01661552837032448
7.692,0.011099089302541632
7.696,0.018540911601745005
7.7,0.023425501171220192
7.704,0.026793731255845627
7.708,0.03140072315490984
7.712,0.06954420339323183
7.716,0.055144981431533374
7.72,0.06654122168897214
7.724,0.09187641469456687
7.728,0.1045531573173542
7.732,0.10188021664573658
7.736,0.1396111707150933
7.74,0.13764350999449293
7.744,0.13470668021326812
7.748,0.16143381160732456
7.752,0.15575164222227808
7.756,0.13302119282386626
7.76,0.15612074623052805
7.764,0.13466568920456187
7.768,0.11547025470786564
7.772,0.11755405721864036
7.776,0.08874136593794088
7.78,0.07254499372134303
7.784,0.052715958065505476
7.788,0.05291446898996423
7.792,0.0412125382774242
7.796,0.02763904780211073
7.8,0.01231387227134576
7.804,0.015785849688101698
7.808,0.009421661955907917
7.812,-0.006444286208088897
7.816,-0.010145003190874016
7.82,0.008609950124845719
7.824,-0.02415341423296014
7.828,0.003200670595189423
7.832,-0.004093933526956258
7.836,0.013483578905682997
7.84,-0.004706372831326909
7.844,0.006721508822303207
7.848,-0.0039006401952623978
7.852,0.0011735804935013928
7.856,0.007386844648703024
7.86,-0.004616840741797297
7.864,0.00996617638205251
7.868,-0.009957485213174612
7.872,0.0028349117569714203
7.876,0.008755069027054144
7.88,0.004907389874225237
7.884,0.013986388205788562
7.888,-0.021128343855472062
7.892,-0.04375382861025524
7.896,-0.06662064111760657
7.9,-0.08468780663532571
7.904,-0.12005599443489226
7.908,-0.14394039197973169
7.912,-0.15136114857047817
7.916,-0.09892744154637996
7.92,-0.05831306169259291
7.924,0.052272602811072474
7.928,0.18696797818423883
7.932,0.31730519811220326
7.936,0.5097598837995387
7.94,0.702696779551796
7.944,0.8658902698870983
7.948,0.9807572153771267
7.952,0.9743304822304116
7.956,0.8652693919959769
7.96,0.7184305065974892
7.964,0.49781177778862423
7.968,0.3038006535450959
7.972,0.13172296196279282
7.976,-0.0015296368659448454
7.98,-0.09932720137893586
7.984,-0.1919445506366222
7.988,-0.23341140086812184
7.992,-0.24453843413105014
7.996,-0.21086170443557653
8.0,-0.16462454660262207
8.004,-0.11272731756877308
8.008,-0.051418989176486074
8.012,-0.021147606973885878
8.016,-0.020910206628778263
8.02,-0.002615880899036674
8.024,0.0003933134501223495
8.028,-0.020928238509198473
8.032,-0.008122795972829064
8.036,0.005454743706529042
8.04,0.005668621662335761
8.044,-0.009220696758478189
8.048,0.004547543546855796
8.052,0.01399055609149296
8.056,0.012527917675375946
8.06,0.005017287988531414
8.064,0.002764814604160633
8.068,0.0029304790680488866
8.072,0.016033844462384393
8.076,0.015841880812664987
8.08,0.02317766637175355
8.084,0.021709029655982693
8.088,0.03265581879425285
8.092,0.030120221570984856
8.096,0.0424105403105853
8.1,0.04939557756396737
8.104,0.03954516970752747
8.108,0.03722815465643789
8.112,0.07930564539611695
8.116,0.0758530257873041
8.12,0.06640889334421696
8.124,0.08751359148695684
8.128,0.11425861905515335
8.132,0.11635927540251718
8.136,0.12729538987221511
8.14,0.16022161933923604
8.144,0.1499442908711937
8.148,0.1668971109982412
8.152,0.19154145856047122
8.156,0.207782482459884
8.16,0.22299416440363762
8.164,0.2407908774439063
8.168,0.24659581146839682
8.172,0.26150958063369795
8.176,0.264901170882306
8.18,0.2776800235145364
8.184,0.28619916598453615
8.188,0.2937087442890111
8.192,0.30396030104806315
8.196,0.30461836385628177
8.2,0.3004419990435383
8.204,0.2909245631428274
8.208,0.29681042358408194
8.212,0.2911282064093843
8.216,0.2868608802630439
8.22,0.29888175525088023
8.224,0.26198150729805875
8.228,0.2605319583178957
8.232,0.254960588202176
8.236,0.23230259937887524
8.24,0.24103704997980066
8.244,0.19971479573596768
8.248,0.19228057383012073
8.252,0.1665026583448114
8.256,0.15651872543322845
8.26,0.14832796518406333
8.264,0.14051761727028794
8.268,0.12200145983102532
8.272,0.1188039316816772
8.276,0.09339542060791411
8.28,0.07994709100018817
8.284,0.1000638567180504
8.288,0.0675735066556108
8.292,0.047897894706915904
8.296,0.040453085375698694
8.3,0.031087159778565875
8.304,0.04377617346784348
8.308,0.02539627247644309
8.312,0.02562504905322275
8.316,0.019654441998419207
8.32,0.024112246844321623
8.324,0.005350034154719928
8.328,0.0005380182515820568
8.332,0.01141504562684676
8.336,0.013411057172426803
8.34,0.009259880523368723
8.344,-0.003366514802992134
8.348,0.01051760211904569
8.352,-0.004494706393233334
8.356,-0.00291460046230107
8.36,-0.007652844106645168
8.364,0.014390199312838834
8.368,0.007391172974164619
8.372,0.006855112604955414
8.376,0.013081577680613254
8.38,0.028584870219925215
8.384,-0.01674971427475682
8.388,-0.0071294128820755445
8.392,-0.005974089796996347
8.396,-0.008370623587776507
8.4,-0.010675622583671744
8.404,-0.0029240019214497766
8.408,-0.012113877906002319
8.412,0.003387695297880019
8.416,0.0005434477823191325
8.42,0.00482896077874836
8.424,0.005090384746960188
8.428,0.00603921760777186
8.432,-0.0037276989646248216
8.436,0.021215964110475664
8.44,0.0023477123163507334
8.444,-0.018621866647014235
8.448,-0.010020308921825576
8.452,-0.017399720241936527
8.456,0.00018297530632529316
8.46,-0.0011996148264629845
8.464,-0.004648851278585495
8.468,0.02017617316135162
8.472,0.005613485332708914
8.476,0.007483974141864446
8.48,-0.008918631396440679
8.484,-0.009319317574528183
8.488,0.0014911332258888477
8.492,0.003559246710520308
8.496,-0.015659190312285517
8.5,0.0026905737270211338
8.504,0.006918607855373779
8.508,0.007813391447454852
8.512,0.006146227620025762
8.516,0.014551497454145332
8.52,0.025389450927843903
8.524,0.03694965302219676
8.528,0.05267014025938328
8.532,0.06959313194120353
8.536,0.06930284782823318
8.54,0.08198508326543266
8.544,0.10543364405840304
8.548,0.12112633401128318
8.552,0.12325663345619381
8.556,0.145881590047687
8.56,0.1552256994225358
8.564,0.16232711358005575
8.568,0.16740308683239408
8.572,0.13737867638225662
8.576,0.1390872994790928
8.58,0.12896988557142391
8.584,0.11549770108429451
8.588,0.09613510626549002
8.592,0.07328295400635312
8.596,0.07470861296200279
8.6,0.05251897461176385
8.604,0.04874082423207211
8.608,0.029178176591654243
8.612,0.01705150757444339
8.616,0.023001396329400004
8.62,0.01634029099790286
8.624,0.01617121998545719
8.628,0.028937610433374297
8.632,0.007479330996614601
8.636,0.007900791241392943
8.64,-0.008849055302470371
8.644,-0.011682895611837399
8.648,0.016540163805803178
8.652,-0.008818376935698704
8.656,-0.010202004624942198
8.66,-0.00025902902886205893
8.664,-0.0008304386467761406
8.668,-0.008987324651742963
8.672,-0.0030303663680292924
8.676,0.012303002827075925
8.68,-0.008058616583593008
8.684,-0.013954662289204505
8.688,0.009326014257969716
8.692,0.0044935033612155595
8.696,-0.007764919479299156
8.7,-0.02064453028142382
8.704,-0.020152332704547568
8.708,-0.029069464841090475
8.712,-0.0428895249046777
8.716,-0.09919523460372177
8.72,-0.12386924660204873
8.724,-0.13754867816809763
8.728,-0.1651819309087928
8.732,-0.09943031522380635
8.736,-0.06282711102622089
8.74,0.03719409951258559
8.744,0.15170488534625234
8.748,0.31268273367917093
8.752,0.49568704321886486
8.756,0.6703107505158071
8.76,0.8659804703033547
8.764,0.984277146422344
8.768,0.9869064994376665
8.772,0.8944980923093159
8.776,0.7226573666431803
8.78,0.515199402174296
8.784,0.310294117542539
8.788,0.12657351998647573
8.792,0.0039626159819874125
8.796,-0.0981482581955111
8.8,-0.1979009474971846
8.804,-0.23053100082206013
8.808,-0.23459982515706512
8.812,-0.20949846811768302
8.816,-0.1853096310615649
8.82,-0.10932844544356607
8.824,-0.03239581916817613
8.828,-0.028534878910935826
8.832,-0.028511341159498885
8.836,0.009840263202462996
8.84,-9.573832290506165e-05
8.844,0.011646665963294705
8.848,0.003774344567296567
8.852,0.00594226469324207
8.856,0.005396882303608831
8.86,0.009251852372351856
8.864,0.02568865938969924
8.868,0.013416249995361708
8.872,-0.011120321071990139
8.876,0.010346309992308244
8.88,0.01874979276645862
8.884,0.021119107959279175
8.888,0.006932187756100571
8.892,0.02535370703961196
8.896,0.02594153619320476
8.9,0.04585913456906769
8.904,0.01667110104424723
8.908,0.0237586602449894
8.912,0.031112617267458148
8.916,0.035343753951487984
8.92,0.03819449516717137
8.924,0.02713056390227568
8.928,0.05891353260949711
8.932,0.07631152567467457
8.936,0.07789548459314229
8.94,0.11322402319358592
8.944,0.10583996498380276
8.948,0.13118549229634344
8.952,0.1341086536643354
8.956,0.15352260835511347
8.96,0.16223209590479637
8.964,0.1875766761162309
8.968,0.18899695258317556
8.972,0.20786201224419734
8.976,0.2207437158583577
8.98,0.22788638407995326
8.984,0.2478060752504335
8.988,0.27817542617182306
8.992,0.26408815323224333
8.996,0.2806419757189531
9.0,0.29720230371705697
9.004,0.30257662179981293
9.008,0.2960912335130414
9.012,0.27509997794076946
9.016,0.30516414865697744
9.02,0.2769487572498107
9.024,0.3110887056710201
9.028,0.2934818367742423
9.032,0.2954204949463559
9.036,0.26839690397941424
9.04,0.252391585813234
9.044,0.25969761082330844
9.048,0.24479110035668078
9.052,0.2273144171212301
9.056,0.21945414302292948
9.06,0.23214584579097677
9.064,0.19837470390607595
9.068,0.18597577400865684
9.072,0.16945155968562856
9.076,0.1615886731716323
9.08,0.13107693878769167
9.084,0.0991455657202357
9.088,0.10516265333205213
9.092,0.10324624191517782
9.096,0.07429917119350421
9.1,0.07193124685846783
9.104,0.057326036865940094
9.108,0.07066765673286844
9.112,0.05538833030202346
9.116,0.0474729389131687
9.12,0.041018409894191546
9.124,0.029011109706971985
9.128,0.026625818834269132
9.132,0.008695623821346445
9.136,-0.004846135447454335
9.14,0.015506153329521927
9.144,0.014692188379957439
9.148,0.021397533739433566
9.152,0.023225272766019784
9.156,0.021725728437040067
9.16,-0.0051774728078868865
9.164,0.00028092656767697956
9.168,0.007796391457058051
9.172,0.027659262109223093
9.176,0.01661909469551882
9.18,0.012597436336072859
9.184,-0.0028014016737006875
9.188,-0.008011589536142498
9.192,0.008510339533130388
9.196,-0.010539158471278575
9.2,-0.002034881589988895
9.204,-0.0008881638204607644
9.208,0.016120748290551924
9.212,-0.003406431451755402
9.216,-0.024290079265601706
9.22,0.0051186049549351385
9.224,-0.006936864212759233
9.228,0.00046445183990450017
9.232,-0.0008399545350824416
9.236,-0.0027179185894396028
9.24,0.007916815233425866
9.244,-0.01531930502945083
9.248,-0.005163672996393315
9.252,0.006844829646121072
9.256,-0.006137805477353579
9.26,-0.016086000500839828
9.264,0.00668694889347662
9.268,0.01123188412878754
9.272,-0.0004493218989222628
9.276,-0.019608025567271432
9.28,0.007060012588015946
9.284,-0.016598597422421042
9.288,0.003088348822464558
9.292,-0.008874020420742305
9.296,-0.011597149907036891
9.3,-0.004416507532731377
9.304,-0.0018276026005150246
9.308,-0.006431166793207412
9.312,0.005908685749096413
9.316,-0.0044188055957648026
9.32,0.009880907059989218
9.324,0.0029569590571258348
9.328,-0.006715335506188398
9.332,-0.008204858491711929
9.336,-0.015701108326854906
9.34,0.0041915200344642975
9.344,-0.0014686667586585925
9.348,-0.020446937433418296
9.352,-0.00032412150945364
9.356,-0.0014711109878811166
9.36,0.02676473201976673
9.364,-0.0013614122318870818
9.368,0.007319125031468471
9.372,0.040485547128150216
9.376,0.05229752037303204
9.38,0.04230512055522527
9.384,0.05598206133493772
9.388,0.08220593574147389
9.392,0.06719779417364125
9.396,0.08629810994302722
9.4,0.11577430005131024
9.404,0.1461460260544371
9.408,0.1359448452597836
9.412,0.14787184465289666
9.416,0.16118192213289695
9.42,0.17009074835392451
9.424,0.13868992071771666
9.428,0.13632690074693696
9.432,0.14393188638137533
9.436,0.09763106658058904
9.44,0.10902517293366439
9.444,0.07404112781586458
9.448,0.07104477234640726
9.452,0.05431383869031267
9.456,0.035236469184043634
9.46,0.024673027283608595
9.464,0.028657202666811345
9.468,0.028895339991747537
9.472,0.012206444443337282
9.476,0.01008573056997388
9.48,0.012068815067308536
9.484,-0.005518782194057421
9.488,0.010098310984149109
9.492,0.009888059009001714
9.496,0.02707246446707464
9.5,-0.0031434578290645055
9.504,-0.004222036523441975
9.508,0.007892822375207699
9.512,0.008303177353278898
9.516,-0.005290543936658727
9.52,-0.004000002600993967
9.524,0.005427368487517606
9.528,-0.008268641678250116
9.532,-0.0041070685929476295
9.536,0.0008660981368507407
9.54,0.009808625655954355
9.544,-0.006663891790012315
9.548,-0.02057224527982884
9.552,-0.02552815717398107
9.556,-0.02864743359317231
9.56,-0.047644431642078176
9.564,-0.06475322473135879
9.568,-0.11044131764974031
9.572,-0.13761750761571453
9.576,-0.1539650522165458
9.58,-0.14007988542112687
9.584,-0.08325706142316801
9.588,-0.024138395516335617
9.592,0.06183798775394332
9.596,0.18192313703316032
9.6,0.3452234220833302
9.604,0.5482694013447968
9.608,0.7527532350952654
9.612,0.902905748481454
9.616,0.9957289064661987
9.62,0.9514223812888274
9.624,0.8503512671130773
9.628,0.668035422166292
9.632,0.45114445088717836
9.636,0.2822415815607509
9.64,0.09658310190757108
9.644,-0.021572952250152256
9.648,-0.12833434042410014
9.652,-0.20532691233147546
9.656,-0.24419991206576033
9.66,-0.237158924195107
9.664,-0.18854265822846142
9.668,-0.12461831577012274
9.672,-0.08272772390080727
9.676,-0.033865420927295956
9.68,-0.025076143870549683
9.684,0.0012441146127796805
9.688,-0.009268447537146639
9.692,0.010982077673880288
9.696,0.022832181345701388
9.7,-0.00012281473248918796
9.704,-0.020466204335504553
9.708,-0.003587408342220465
9.712,0.014753993017046501
9.716,0.008642246663976368
9.72,0.006439172948377762
9.724,0.015069272761287457
9.728,0.011089491457631533
9.732,0.01995447113001756
9.736,0.018817885079689622
9.74,0.027049481284773302
9.744,0.018043426676275582
9.748,0.02659984300356009
9.752,0.018093155579259022
9.756,0.019349785165074435
9.76,0.04727157275679711
9.764,0.03789936664242397
9.768,0.050063528500094434
9.772,0.05031705972795747
9.776,0.051101679097670855
9.78,0.06580949548132271
9.784,0.0896477650455606
9.788,0.09127727371684839
9.792,0.07987136165926113
9.796,0.10687418746126821
9.8,0.13960301439279627
9.804,0.1330196103371471
9.808,0.13104284504002894
9.812,0.1822470671967134
9.816,0.1846338422925065
9.82,0.19165430565841016
9.824,0.20304697321783907
9.828,0.23165256388980565
9.832,0.22892962865522565
9.836,0.2585936596889974
9.84,0.2643273150029462
9.844,0.27197883523074834
9.848,0.2802599114654679
9.852,0.28480699813792887
9.856,0.3031015943942849
9.86,0.28830302720608403
9.864,0.28318961854429997
9.868,0.30610006611190066
9.872,0.30489876088580475
9.876,0.30012959738766565
9.88,0.2943173599138285
9.884,0.2802154794410401
9.888,0.2828711140758785
9.892,0.2646643194099947
9.896,0.24909648023724418
9.9,0.23861349079099853
9.904,0.24882518346816596
9.908,0.19748743482653933
9.912,0.20559632025670366
9.916,0.16931736615236903
9.92,0.1704813040025452
9.924,0.15281028064391336
9.928,0.12217242685558047
9.932,0.13322823078609985
9.936,0.11241585940758504
9.94,0.08276758764116458
9.944,0.10044290588215292
9.948,0.09548602806034155
9.952,0.08596311488655325
9.956,0.06543111695168848
9.96,0.05393482407863049
9.964,0.05922563110891214
9.968,0.056046284769920074
9.972,0.04460627765846562
9.976,0.018626484871989667
9.98,0.025497534733544137
9.984,0.023936801804813508
9.988,-0.0019388662111850634
9.992,0.017967467533630873
9.996,0.03356534848869723
10.0,0.015187878145513239
10.004,0.02181693930049062
10.008,0.007500882435371029
10.012,0.0037806252026002965
10.016,0.00738049641169468
10.02,-0.0053556068320094324
10.024,-0.007450177311260844
10.028,0.01435963158924969
10.032,0.015030826249885158
10.036,-0.008909995412989064
10.04,0.010441607506137054
10.044,-0.0002938508615690838
10.048,0.0038305484976100595
10.052,0.004924950193885622
10.056,0.010182859097831978
10.06,0.0010035495301019305
10.064,0.014230746710036378
10.068,0.003188064906576856
10.072,0.00630974324524624
10.076,-0.008283858211648452
10.08,0.02162139273400571
10.084,0.004722927363102928
10.088,0.007147361589316949
10.092,-0.016069685762109397
10.096,-0.008218553090706435
10.1,0.012384689107905196
10.104,0.0028729303254806785
10.108,-0.01913505454606321
10.112,0.010384759613507826
10.116,-0.005436573059016671
10.12,0.014114014275365792
10.124,-0.0008777843260374158
10.128,0.002047471504247119
10.132,0.011789873898811731
10.136,-0.008974571435042067
10.14,-0.009927911097908403
10.144,-0.0019639128053602264
10.148,0.008273937799455778
10.152,-0.013304190780768131
10.156,-0.016670999437609378
10.16,0.008255846334754385
10.164,-0.0059935290112674965
10.168,-0.003853500383869816
10.172,-0.01844097943979251
10.176,-0.00656069662428756
10.18,0.00032675978150161855
10.184,0.009992829729827348
10.188,-0.006562316849691403
10.192,0.018444507761939215
10.196,-0.0038792271337403424
10.2,-0.0022462598193239416
10.204,0.022280362709751145
10.208,0.012256686632664222
10.212,0.008996204920177032
10.216,0.01870103566764904
10.22,0.0410713200378301
10.224,0.05116704660490299
10.228,0.03899644013409012
10.232,0.058971716852983046
10.236,0.07381091494588199
10.24,0.07737262072245801
10.244,0.10118054202363055
10.248,0.11570502762181621
10.252,0.13954844579686
10.256,0.15047618354991737
10.26,0.14240810013751426
10.264,0.14736699983006485
10.268,0.15617771874203673
10.272,0.1399309598307619
10.276,0.14441920981159648
10.28,0.127436966276451
10.284,0.10615473955560328
10.288,0.09238079533692546
10.292,0.10192024714186317
10.296,0.07155216017036002
10.3,0.07599077652491576
10.304,0.04219771140102127
10.308,0.03956227272912351
10.312,0.051587352470798264
10.316,0.009774435561430836
10.32,-0.004387412717745676
10.324,0.023063737769145394
10.328,-0.0013207109890690473
10.332,0.004406283493835345
10.336,-0.0028731582527154096
10.34,0.004565504495653577
10.344,-0.008346868223702265
10.348,-0.001104989140198688
10.352,0.0049038695476687376
10.356,-0.009852036785597644
10.36,-0.006872583844218065
10.364,-0.0034044335500517725
10.368,-0.014251563032448119
10.372,-0.004206864580318447
10.376,0.001196841723975582
10.38,-0.0039946465543348585
10.384,-0.00273346181003853
10.388,-0.00030654354385342046
10.392,-0.007015644789586856
10.396,0.005259227050275963
10.4,0.009292109145437114
10.404,-0.01789398273129176
10.408,-0.02466691781013958
10.412,-0.058420646788011586
10.416,-0.08688787425290434
10.42,-0.10877201388498434
10.424,-0.13968700255131483
10.428,-0.15825676749432177
10.432,-0.10303480639882438
10.436,-0.035252368436085174
10.44,0.03637991449687654
10.444,0.16554478819856175
10.448,0.3031289257810752
10.452,0.48488046752460373
10.456,0.7049281881702749
10.46,0.8633704114841609
10.464,0.9832553536225416
10.468,0.9992752187578058
10.472,0.8637170362491772
10.476,0.6925517586957374
10.48,0.48902740828975727
10.484,0.303139127147216
10.488,0.13425218982717033
10.492,0.016709831085151772
10.496,-0.0974146083370893
10.5,-0.18527829190765255
10.504,-0.23671324808971486
10.508,-0.2390024288529256
10.512,-0.21708370028205856
10.516,-0.14323642190830624
10.52,-0.10515825653725065
10.524,-0.041187861165923004
10.528,-0.010257378796139499
10.532,-0.0061253764388555735
10.536,-0.004104878913091268
10.54,0.0038336233701362164
10.544,-0.027993696535979613
10.548,0.004043837366833244
10.552,0.00024079296934587948
10.556,0.0012821940969907617
10.56,0.009369419944962145
10.564,0.0022004736056932366
10.568,-0.007654027083102685
10.572,0.0033204962692668155
10.576,0.006618044937986631
10.58,0.008560414191249373
10.584,0.010802825696572727
10.588,0.021701233505313545
10.592,0.0029734878867983885
10.596,0.01857357182293244
10.6,0.03321129619458804
10.604,0.007031348175359952
10.608,0.030866455404769434
10.612,0.02859086129062479
10.616,0.03684553436841353
10.62,0.03839108732425005
10.624,0.05344559292298179
10.628,0.08209714591644196
10.632,0.06043826456953099
10.636,0.07163627516335365
10.64,0.08139418436188904
10.644,0.12355997819349182
10.648,0.11426425023408249
10.652,0.13187887867652603
10.656,0.1418943444128786
10.66,0.15067531453807187
10.664,0.17222584886848677
10.668,0.21370876500424227
10.672,0.2175014032796219
10.676,0.20921236926386033
10.68,0.2378778605394214
10.684,0.23603540976941398
10.688,0.2386139578028707
10.692,0.2774756307713196
10.696,0.28847035424752504
10.7,0.29543318837367005
10.704,0.28674320461494185
10.708,0.29448866935442064
10.712,0.30652500582249925
10.716,0.30391490802910825
10.72,0.29511924004052115
10.724,0.2800216973472287
10.728,0.29266325928992704
10.732,0.29587052153222937
10.736,0.26502441798303755
10.74,0.2738197335229608
10.744,0.25986273136489346
10.748,0.2520369520754959
10.752,0.24031880090702673
10.756,0.21100299501610692
10.76,0.187622870066194
10.764,0.18400576294756874
10.768,0.18368326693592496
10.772,0.1549115205225358
10.776,0.13918876893475757
10.78,0.11412174124299881
10.784,0.1366053035061571
10.788,0.11472391007703447
10.792,0.10228219197953371
10.796,0.09316730435907489
10.8,0.07899485411300183
10.804,0.06137386290562653
10.808,0.05362346001348969
10.812,0.043271252093301835
10.816,0.06699598177721607
10.82,0.04008851632638705
10.824,0.024506264246852347
10.828,0.029097030617909053
10.832,0.010259061378189976
10.836,0.03190938559807795
10.84,0.007263735352587891
10.844,0.016352649272043218
10.848,0.019872097310996283
10.852,0.01128261486344973
10.856,0.00690688086943173
10.86,0.004858681077697881
10.864,0.0031967619769676394
10.868,-0.0028082016356131482
10.872,-0.002182111850145718
10.876,0.0165921025070084
10.88,0.0003007695014626505
10.884,-0.006795098690372972
10.888,-0.004353190230317995
10.892,0.0116167386927251
10.896,0.0072171890504727715
10.9,0.0059479355986832285
10.904,-0.0023192679749486573
10.908,0.005922484698805218
10.912,-0.006297141312165965
10.916,-0.0024952634596972856
10.92,0.009771065924878237
10.924,0.008795296842199025
10.928,-0.009781564637348446
10.932,-0.008528611834206768
10.936,0.0011058268481100855
10.94,0.01727450764459597
10.944,-0.019146467491002937
10.948,0.002789687092736912
10.952,-0.013756058600898902
10.956,-0.006340314625499294
10.96,-0.0036422358964460434
10.964,-0.0042036665634408435
10.968,-0.005336927375397498
10.972,7.29463156005846e-05
10.976,-0.005351555801733327
10.98,-0.014623002160634498
10.984,0.007801660777262285
10.988,0.00753464887557659
10.992,0.00844362308963144
10.996,-0.01538392756817972
11.0,0.003034301187491408
11.004,0.006844602118070062
11.008,-0.010156576909360419
11.012,0.000369451236656323
11.016,-0.0006790142259672983
11.02,0.019242515830928703
11.024,0.02060341970944612
11.028,-0.01445263697913522
11.032,0.02838349438767213
11.036,-0.003874649528474483
11.04,0.017689249062912617
11.044,0.021180561383469576
11.048,0.00632730446426053
11.052,0.027456421439962908
11.056,0.029291292757856063
11.06,0.045448977690126596
11.064,0.05342248518279648
11.068,0.07578343200982862
11.072,0.07842185308595771
11.076,0.09045265717033149
11.08,0.1174867494218937
11.084,0.1258606905393607
11.088,0.139204235731998
11.092,0.13457328923019615
11.096,0.1369381301816009
11.1,0.14426673102712234
11.104,0.1424776628292558
11.108,0.15157383027123056
11.112,0.14515321996512848
11.116,0.12278111392352208
11.12,0.12559848337790666
11.124,0.11078139035851406
11.128,0.08500689817500741
11.132,0.060227823683513454
11.136,0.07105693709379014
11.14,0.04294395672776266
11.144,0.03469583544695874
11.148,0.021620888121573277
11.152,0.009347760083304447
11.156,-0.0017155807346387782
11.16,0.015316554396806945
11.164,-0.00176345382766783
11.168,0.03459183480781462
11.172,-0.008296145089898725
11.176,-0.010969708141385865
11.18,0.00607938041860309
11.184,0.015874324413186484
11.188,0.0009825491145742577
11.192,0.005912500514178125
11.196,-0.01833086839315933
11.2,-0.006719003584472533
11.204,-0.010706833191344804
11.208,-0.018935646266407917
11.212,0.0011761603284891021
11.216,-0.02243160552168983
11.22,-0.013258455107192068
11.224,-0.005550624091486688
11.228,-0.00903112231288212
11.232,0.0015122663278918603
11.236,-0.004073300660879898
11.24,-0.008724494818619621
11.244,-0.029759955382621932
11.248,-0.05563315579181566
11.252,-0.10263841784246557
11.256,-0.1304087302863324
11.26,-0.14134266105053828
11.264,-0.13120776114897878
11.268,-0.09424695983660515
11.272,-0.024937574534345395
11.276,0.06597655435318212
11.28,0.20739957837594866
11.284,0.36959180336842123
11.288,0.5617941710255479
11.292,0.7619162190556324
11.296,0.9142564992541274
11.3,1.0080390812868678
11.304,0.9630041498993542
11.308,0.8205536163384718
11.312,0.6450407674313702
11.316,0.4253481065851466
11.32,0.23023829815993202
11.324,0.09947751247794002
11.328,-0.0422512046066839
11.332,-0.14234736288533398
11.336,-0.21043207075182183
11.34,-0.2332823875897403
11.344,-0.23488227779849485
11.348,-0.20278201689961323
11.352,-0.12612379415901034
11.356,-0.08203345630486188
11.36,-0.019606721572966994
11.364,-0.016225156583257665
11.368,-0.02796390603365774
11.372,0.002224472599838784
11.376,0.019627636929892923
11.38,0.01653367718776309
11.384,0.019446954342969943
11.388,-0.008693318984127413
11.392,0.011070779585336286
11.396,-0.004714757306262283
11.4,0.005441382084493244
11.404,-0.008671998123138031
11.408,-0.0013301215065948295
11.412,-0.0003569430061514077
11.416,0.016956906378896477
11.42,0.01786385631966681
11.424,0.014878317220237105
11.428,0.001279630881624385
11.432,0.014816354920741303
11.436,0.014152422996632006
11.44,0.034580517877866285
11.444,0.04258168347579706
11.448,0.04697966164383639
11.452,0.035228908502649196
11.456,0.022543059164652438
11.46,0.04025159036752639
11.464,0.08096779866137119
11.468,0.07242474898351034
11.472,0.07946285106581073
11.476,0.11474959767169027
11.48,0.12310033680967825
11.484,0.12352286992656887
11.488,0.13378646228805993
11.492,0.14933997889570935
11.496,0.16723538483970313
11.5,0.19547250180608314
11.504,0.19823530252856467
11.508,0.21564928850929538
11.512,0.23409771145354683
11.516,0.22415268694504367
11.52,0.25605965092588046
11.524,0.2572361633397436
11.528,0.24550201624148277
11.532,0.25848833931801557
11.536,0.2771574882507119
11.54,0.29854159462325663
11.544,0.2984697946254235
11.548,0.3014119129349647
11.552,0.3194054599561522
11.556,0.28561796774510134
11.56,0.2945627603963232
11.564,0.29259104287978893
11.568,0.2751744419161415
11.572,0.274221787589081
11.576,0.24790764069548588
11.58,0.2667201906281825
11.584,0.233458932258634
11.588,0.24738846555717353
11.592,0.2129052945642574
11.596,0.20923284544694004
11.6,0.18391333708593377
11.604,0.16959974286230806
11.608,0.1496752788111692
11.612,0.14262612551145767
11.616,0.13098848276381078
11.62,0.10691553288267526
11.624,0.10113250282619764
11.628,0.08465856476218415
11.632,0.10293911570019966
11.636,0.06906809604643044
11.64,0.0762951807218322
11.644,0.05061600681266696
11.648,0.047728942119623356
11.652,0.02529086184288669
11.656,0.02816699680424389
11.66,0.02959369818370659
11.664,0.0388637574895601
11.668,0.0213477560520978
11.672,0.029640887250204907
11.676,0.019381151941400616
11.68,0.026856815098606317
11.684,0.007986917266713914
11.688,0.030809793232927228
11.692,0.0006734013949133743
11.696,-0.003269895359088249
11.7,-0.00862864211141287
11.704,0.026035582508494026
11.708,0.010320141845933684
11.712,-0.0016938394447012983
11.716,0.01375877424598651
11.72,0.007847528437372069
11.724,0.020399179497335225
11.728,-0.014920914249647647
11.732,-0.0022352161318097345
11.736,-0.004313185030760392
11.74,-0.01950560226568759
11.744,0.010773524554266684
11.748,-0.0025794069638371796
11.752,0.00748685911890691
11.756,0.023663122033322475
11.76,-0.00348549753913389
11.764,-0.00417805644515935
11.768,0.0012103599311252614
11.772,0.009889172343835436
11.776,-0.005655448461917856
11.78,-0.006301496012306733
11.784,0.01057750084522239
11.788,0.003790241868297691
11.792,-0.02044465829418924
11.796,-0.012252139811274227
11.8,0.015013556064473953
11.804,0.004020084723806565
11.808,-0.007621423934180104
11.812,-0.0017037369067465487
11.816,0.00013261782975502494
11.82,0.007357533703838576
11.824,-0.013582418848032825
11.828,-0.008409157263575724
11.832,0.0027302077784648977
11.836,-0.000996983484790311
11.84,0.005721462994498029
11.844,-0.012289120411346064
11.848,0.0035833529669700034
11.852,0.010939692404753978
11.856,0.0049141710490861095
11.86,0.0014775259891129466
11.864,-0.00080057111788576
11.868,-0.00806595997136922
11.872,-0.00022829304667300462
11.876,0.013431071009610931
11.88,0.00018861681531850754
11.884,-0.006675875004564447
11.888,-0.0014318613236648007
11.892,0.007353018384303032
11.896,0.0042410861293122725
11.9,0.016455988713548024
11.904,0.021680558309530692
11.908,0.03162809004784734
11.912,0.0448675390023531
11.916,0.050181544125098565
11.92,0.042139618188229186
11.924,0.05519186264671172
11.928,0.0773447341054616
11.932,0.08806294920014694
11.936,0.09557197178342436
11.94,0.11602949215672267
11.944,0.12746590999952456
11.948,0.13473826076143292
11.952,0.14436574558458126
11.956,0.1617466603673803
11.96,0.1505803908485959
11.964,0.16822338809789283
11.968,0.1367984903567917
11.972,0.12105959331087798
11.976,0.11091100936503136
11.98,0.09922011591738565
11.984,0.0864859162542944
11.988,0.0887964459303957
11.992,0.04646986537016874
11.996,0.051811525203599294
12.0,0.03523015048918847
12.004,0.009075964811196841
12.008,0.025770816007849515
12.012,0.025507773011081404
12.016,0.00031266772077795553
12.02,0.005906675881697019
12.024,-0.013309171566488434
12.028,-0.010058912727392932
12.032,0.01206101274421764
12.036,-0.003701189237822678
12.04,-0.010516210576716015
12.044,0.002625570195164342
12.048,-0.0050374040137651736
12.052,-0.004605537840523066
12.056,0.007448295367193998
12.06,-0.011588595994268862
12.064,-0.009039158988061539
12.068,0.00154693303302942
12.072,0.009690301601937755
12.076,0.012343130563035437
12.08,-0.006837511405625926
12.084,0.0086263585075077
12.088,-0.010380263378035269
12.092,0.010915880799912757
12.096,-0.029449546739429802
12.1,-0.024761416832707817
12.104,-0.07464322635438336
12.108,-0.08356218098660223
12.112,-0.12825187693735043
12.116,-0.15661989198183965
12.12,-0.13696943662372268
12.124,-0.08075042269147428
12.128,-0.008589705674836141
12.132,0.07684481903696137
12.136,0.2081570368279108
12.14,0.3837819254373581
12.144,0.5760039457533717
12.148,0.761281027370842
12.152,0.9218740410416181
12.156,1.0011277941756611
12.16,0.9716130824715995
12.164,0.8401257196777829
12.168,0.6384640742964051
12.172,0.42773919434186486
12.176,0.24659078937707374
12.18,0.07836036309418856
12.184,-0.04186203465827316
12.188,-0.14918023874762895
12.192,-0.22498436684433148
12.196,-0.2417145461371069
12.2,-0.23230856364647562
12.204,-0.18221824794561312
12.208,-0.12429068483956542
12.212,-0.07332080865558377
12.216,-0.03201510420163221
12.22,-0.01617500419243687
12.224,-0.0012846638955799575
12.228,-0.008536623660346089
12.232,0.003905094722075348
12.236,0.007471188533667046
12.24,-0.005548872481019263
12.244,0.0020347939960283197
12.248,-0.004271609057383718
12.252,-0.0027409247343405142
12.256,-0.008027238866174168
12.26,0.01674437416168502
12.264,0.015806962167058385
12.268,0.011823285063256675
12.272,0.0277457859067222
12.276,0.008027157337468602
12.28,0.04250270918789423
12.284,0.012597167502629326
12.288,0.020588657811062755
12.292,0.017756887873696118
12.296,0.029746942817295466
12.3,0.039316451059703814
12.304,0.03545923235705567
12.308,0.06075442646695041
12.312,0.05256071199520208
12.316,0.06088244800810762
12.32,0.05794395421169149
12.324,0.08093070560227465
12.328,0.08596371885754744
12.332,0.09259883748382496
12.336,0.10306480537211676
12.34,0.15039695007028026
12.344,0.13450363405348098
12.348,0.13652220410198085
12.352,0.1584212840121316
12.356,0.17939968929719208
12.36,0.1999186393915387
12.364,0.21437029901769217
12.368,0.22959019382719023
12.372,0.22979915225328784
12.376,0.25228660417010607
12.38,0.2517590623741726
12.384,0.26476512404319325
12.388,0.27084698178960537
12.392,0.27565962357446294
12.396,0.30402330487322954
12.4,0.3043138994429321
12.404,0.3093731915829035
12.408,0.30026902379007
12.412,0.3059987702712335
12.416,0.2770894817916113
12.42,0.29798884677545656
12.424,0.28406918506801715
12.428,0.27992435578381686
12.432,0.2673811630569403
12.436,0.24238914074660745
12.44,0.22490413832478554
12.444,0.21954064528049225
12.448,0.21844964151352989
12.452,0.20541371502164088
12.456,0.1703236048790119
12.46,0.1596547557582351
12.464,0.14784893828234177
12.468,0.13743938612936527
12.472,0.11378139928821672
12.476,0.10015022981426244
12.48,0.09379910635333182
12.484,0.09128046890718043
12.488,0.06782010022429763
12.492,0.06851684458559981
12.496,0.0711639329304963
12.5,0.0393157234170115
12.504,0.042857905038734136
12.508,0.04856229477897758
12.512,0.028287848307032536
12.516,0.021605511475562326
12.52,0.034511916733259
12.524,0.015956796162364274
12.528,0.026755422010959776
12.532,0.017184479414029473
12.536,0.0070878355796583185
12.54,0.01331866928481074
12.544,0.010065967064720098
12.548,0.01569823727496133
12.552,-0.0011197601089092974
12.556,0.0038587627766451557
12.56,0.0020898826353983645
12.564,0.009150905819400382
12.568,-0.008617329873626555
12.572,0.011428134360307846
12.576,0.005625914978834349
12.58,-0.012437554903507451
12.584,0.012635244342460435
12.588,0.022755633621114057
12.592,0.010327562100973076
12.596,0.014498947858619578
12.6,0.0010223692917477806
12.604,-0.016491683060660373
12.608,-0.01835154177318106
12.612,0.0026155717471606295
12.616,-0.0058733252518535515
12.62,-0.009112635699446389
12.624,-0.0006039985549992577
12.628,0.006172372502480915
12.632,-0.014516021261674863
12.636,-0.004480746432222007
12.64,0.01510425177302095
12.644,-0.010749078826073379
12.648,0.00870020715008765
12.652,-0.004845546335954422
12.656,0.0054591312508287726
12.66,0.010974093425848258
12.664,0.007413409422086764
12.668,0.009092098395988442
12.672,-0.011515352346720943
12.676,0.011137537534007994
12.68,-0.008525114099345261
12.684,0.0025991240659392683
12.688,0.002590024705571609
12.692,0.004866388159706325
12.696,0.0033992705394752165
12.7,-0.008381336807729876
12.704,-0.013392917904085316
12.708,0.008915558163526417
12.712,0.0021983720759643035
12.716,0.012080511766279526
12.72,0.0005395570925633953
12.724,-0.012433680262581152
12.728,0.012246843553950311
12.732,0.00032363326272468037
12.736,0.009534607669237787
12.74,0.0025743127088400574
12.744,0.029495952004979495
12.748,0.009587149655495448
12.752,0.021778045867517554
12.756,0.034674286622629634
12.76,0.03282806835851139
12.764,0.058831572282391886
12.768,0.0848107241018929
12.772,0.07792586883902168
12.776,0.10130654282405875
12.78,0.08404018431914542
12.784,0.12416022150740416
12.788,0.13243744287782558
12.792,0.13564636962866153
12.796,0.15955608439763086
12.8,0.1466692050181113
12.804,0.14553659403399513
12.808,0.1373067211855062
12.812,0.11252656817361426
12.816,0.10850792245643111
12.82,0.11588535689721274
12.824,0.0707722514723006
12.828,0.06975046406013619
12.832,0.059584883649313164
12.836,0.0683381450542498
12.84,0.04740663200569254
12.844,0.02464028383721509
12.848,0.03544394779587396
12.852,0.008781331130126507
12.856,0.02149250955594003
12.86,-0.005760710462979213
12.864,0.015971333988333142
12.868,-0.0006440286959687584
12.872,-0.008112230652311486
12.876,-0.0008248250808709789
12.88,0.0035869169767886173
12.884,-0.00446849203988834
12.888,0.005814447729396583
12.892,-0.00567614355421079
12.896,0.006287587224259192
12.9,0.004466791484163518
12.904,-0.00058617290708999
12.908,-0.004402459150995572
12.912,0.0015190143351665642
12.916,0.005492256060278849
12.92,0.020551417814460477
12.924,0.009093742211741992
12.928,0.008622111835118101
12.932,0.027219240446513478
12.936,-0.004903265522236246
12.94,-0.018689697376143635
12.944,-0.03986032399862751
12.948,-0.08968777570747496
12.952,-0.11938178292389441
12.956,-0.14585455981629952
12.96,-0.13833877692218535
12.964,-0.12231892210902316
12.968,-0.06714984111355309
12.972,0.020343617569616924
12.976,0.12495117636957764
12.98,0.25734303543900716
12.984,0.4324914899351729
12.988,0.6535825978163257
12.992,0.8404141859351751
12.996,0.9478359293740414
13.0,0.9947430118345896
13.004,0.9256489712534821
13.008,0.7722279402351807
13.012,0.5714219433562752
13.016,0.36336274184168116
13.02,0.19071557973843578
13.024,0.04154484223704473
13.028,-0.08292430381088166
13.032,-0.1707712606118522
13.036,-0.22777277141227834
13.04,-0.24645988932898646
13.044,-0.24111412811710137
13.048,-0.17403644703505308
13.052,-0.1100828727825223
13.056,-0.06405490208704608
13.06,-0.031243152794811865
13.064,-0.006480939087102905
13.068,-0.014372795450249136
13.072,-0.016890240136469534
13.076,-0.0030315124486749783
13.08,0.008554619042910978
13.084,0.01813889485382934
13.088,0.009474528063470345
13.092,-0.012547633958515393
13.096,0.0004135873434288257
13.1,0.006053052208000714
13.104,0.006188894904712092
13.108,0.010942742603502519
13.112,-0.002235804639867686
13.116,0.009259461404006441
13.12,0.01482515182469962
13.124,0.021277044724662464
13.128,0.007801302554190669
13.132,0.01574049604212602
13.136,-0.0039599604884626854
13.14,0.02135960407187002
13.144,0.027491794853676192
13.148,0.028420125279555904
13.152,0.046917685215418566
13.156,0.05215293121092206
13.16,0.0384059605956038
13.164,0.07229099201548533
13.168,0.07084490824931637
13.172,0.09581685606485352
13.176,0.08977880009976542
13.18,0.11528533128275628
13.184,0.12521522225340703
13.188,0.14471350120718665
13.192,0.1570170058301046
13.196,0.167614119961154
13.2,0.16934326160610874
13.204,0.18443752251334233
13.208,0.20764255119798342
13.212,0.22723341581109538
13.216,0.2344209435903756
13.22,0.25908445920027573
13.224,0.26130541917991196
13.228,0.2644548324317476
13.232,0.27989559972349676
13.236,0.29191506246506116
13.24,0.2981640516656509
13.244,0.31713762124532785
13.248,0.2932178953976884
13.252,0.2988102106563853
13.256,0.3015360223365445
13.26,0.2929054343683147
13.264,0.282211793633939
13.268,0.26412802728568563
13.272,0.26537916868163963
13.276,0.24924648370760275
13.28,0.2310271704383749
13.284,0.22765905915995596
13.288,0.21168844510736592
13.292,0.21397293274638557
13.296,0.19976301496350393
13.3,0.17017361661002614
13.304,0.1621040331521198
13.308,0.13182627468791744
13.312,0.1315325660566602
13.316,0.12703366716857242
13.32,0.11847540488139109
13.324,0.09098306115379902
13.328,0.09729346132920386
13.332,0.061100126520536285
13.336,0.05411023654767187
13.34,0.06486804681712938
13.344,0.06651477835665824
13.348,0.04759505085064786
13.352,0.03590577443924189
13.356,0.008754324942049922
13.36,0.005577622697494476
13.364,0.02283702951651948
13.368,0.014291460823877493
13.372,0.0036738013786868067
13.376,0.012721724909819333
13.38,0.010971272352413622
13.384,0.01738492014746236
13.388,0.007746235502442446
13.392,0.017377588709111012
13.396,0.004120511008902859
13.4,0.0020314141063276893
13.404,0.01313732791805056
13.408,-0.007843487567477728
13.412,0.02964520952206883
13.416,0.004905551719695899
13.42,0.004688444666449342
13.424,0.005918558299904328
13.428,0.019274510203439617
13.432,0.008301857918375394
13.436,-0.015770202783725963
13.44,0.014241980851871651
13.444,-0.003256696840975116
13.448,0.0011826963039247651
13.452,-0.012711928825467464
13.456,0.005320112238580688
13.46,-0.006472145733515078
13.464,0.00103129313684841
13.468,-0.002820063792119769
13.472,0.01926483506583462
13.476,0.019832886894345994
13.48,0.0004723092393800883
13.484,0.0006448294036080325
13.488,-0.0037307287936264267
13.492,0.011063115416541525
13.496,-0.0032859822161287067
13.5,-0.004208789442707625
13.504,0.00979394865556404
13.508,-0.0053677733144914105
13.512,-0.00034827523723015115
13.516,-0.01575747155164628
13.52,0.007145430121274897
13.524,0.019596725537638353
13.528,0.007545396580199534
13.532,0.015193344335998483
13.536,-0.007492414163053383
13.54,0.003952716691630964
13.544,-0.006889193493233489
13.548,0.001686218006477079
13.552,0.013746008398491586
13.556,0.009941333121887191
13.56,-0.0012427579040158385
13.564,0.004981596344148468
13.568,0.011061414251939872
13.572,0.038172612809875946
13.576,0.06398479161539221
13.58,0.0686901057673732
13.584,0.04922597582052652
13.588,0.09650899515419614
13.592,0.10618487726214305
13.596,0.09557423575679022
13.6,0.12106807971991437
13.604,0.1461614749160327
13.608,0.149087487664763
13.612,0.13553418384903868
13.616,0.1560631625560005
13.62,0.1260991758624906
13.624,0.13913972648705886
13.628,0.1434689701724514
13.632,0.1204843383380204
13.636,0.10180495583125569
13.64,0.10130185288239292
13.644,0.08768684869907314
13.648,0.07717471579781537
13.652,0.06008786014778626
13.656,0.050917484251637106
13.66,0.03786130303429504
13.664,0.025312887198426795
13.668,0.01728405592577124
13.672,0.009182437321973255
13.676,-0.004182723031898485
13.68,-0.004233786482625847
13.684,0.0006529984487096243
13.688,0.004624920406195183
13.692,0.01577932545764417
13.696,0.0004111387678387313
13.7,0.010523422947795607
13.704,0.011073882804789712
13.708,-0.0021572720802639192
13.712,0.006032700705222558
13.716,-0.0023896375659449944
13.72,0.013244996900977017
13.724,0.006370121989621878
13.728,-0.011900932665883483
13.732,0.0016058487949981918
13.736,0.016418408413921868
13.74,-0.002097474736011679
13.744,0.003390741473046407
13.748,0.0019376770001452836
13.752,-0.02008890827648158
13.756,-0.017768073608859597
13.76,-0.0597919043692475
13.764,-0.08454040777717489
13.768,-0.10296723929696933
13.772,-0.13659610598215335
13.776,-0.14819783058424638
13.78,-0.11751635338778246
13.784,-0.07151484288108277
13.788,0.006243275200501524
13.792,0.11835492035501664
13.796,0.2457329515373036
13.8,0.4323891373443213
13.804,0.6315734812058091
13.808,0.8105611548014587
13.812,0.9514139644628986
13.816,1.0142571160467257
13.82,0.9323090604540014
13.824,0.7581332331992651
13.828,0.5545894526631001
13.832,0.36647029215766525
13.836,0.20637418196291868
13.84,0.04383193651258641
13.844,-0.05922814739859973
13.848,-0.16175462407868282
13.852,-0.22174103708228932
13.856,-0.25958831756719003
13.86,-0.2143861077876298
13.864,-0.1755945656729093
13.868,-0.10410431524360497
13.872,-0.07091396293848509
13.876,-0.027905308675476647
13.88,-0.008277009313653917
13.884,-0.005301022163865336
13.888,0.0033720268335606803
13.892,-0.00223752626209604
13.896,-0.00559063952256812
13.9,0.01730506672972889
13.904,0.01212697080628409
13.908,-0.005493387085535607
13.912,0.00839705391473183
13.916,-0.0039706594565814615
13.92,-0.0074715330426427876
13.924,0.015841716461581314
13.928,-0.010162261969853235
13.932,0.01781113766756271
13.936,0.008013974157510585
13.94,0.010808964549672345
13.944,0.01984290176478041
13.948,0.024871681851914323
13.952,0.014661019051231523
13.956,0.0345742225765117
13.96,0.033666886565033
13.964,0.02582529665119275
13.968,0.04330370791047688
13.972,0.06623577968633361
13.976,0.07744347865964513
13.98,0.0769572707023695
13.984,0.06784123668228159
13.988,0.09545208253229198
13.992,0.1106631108514412
13.996,0.1217730881398712
14.0,0.13540393221684527
14.004,0.14480351333069297
14.008,0.15452007060615097
14.012,0.163547675416979
14.016,0.16519000831361802
14.02,0.20207413895301105
14.024,0.21482221063897727
14.028,0.23239206928390957
14.032,0.22665571616149213
14.036,0.2588455787240239
14.04,0.28424890328543395
14.044,0.2745449414887279
14.048,0.2817712448969269
14.052,0.292518985143032
14.056,0.31507648789502846
14.06,0.2880237491043143
14.064,0.3019157242047596
14.068,0.2915958051143951
14.072,0.29192192727160093
14.076,0.29282853127418845
14.08,0.30094007221883445
14.084,0.2979388351960797
14.088,0.27533110113375303
14.092,0.2566271007051208
14.096,0.2736704409669571
14.1,0.23182285773118566
14.104,0.21695553598925446
14.108,0.19091036313353643
14.112,0.20824731910187788
14.116,0.1894314875924324
14.12,0.18941654834871893
14.124,0.1370350565700915
14.128,0.1515632666817071
14.132,0.1242301815761328
14.136,0.11874760097960828
14.14,0.08206897383508185
14.144,0.1018594488731444
14.148,0.08449507765429487
14.152,0.0665387852391064
14.156,0.06453243761441889
14.16,0.04242757329519148
14.164,0.0371154062544376
14.168,0.03189536375580327
14.172,0.012372742567774517
14.176,0.034588703667368825
14.18,0.03360511216235995
14.184,0.010984215237927326
14.188,0.018321192660711205
14.192,0.009501508917501367
14.196,0.013178696390691476
14.2,0.001728332303089902
14.204,-0.0024016263370337312
14.208,0.01565744945236535
14.212,0.00343698064592419
14.216,0.023434289847871527
14.22,0.0029801699931063185
14.224,-0.007301604560323711
14.228,0.013784615864675219
14.232,0.007472371867510403
14.236,0.008157787880725076
14.24,0.01258052056980203
14.244,-0.0060194857571779095
14.248,-0.0008916667221111556
14.252,-0.0014310366748055267
14.256,-0.012697843551585953
14.26,-0.0024818736760477762
14.264,0.013476250519208066
14.268,0.00245496149512237
14.272,-0.013401808802465684
14.276,-0.015516277337246745
14.28,0.01667773291439617
14.284,-0.0008819964224043757
14.288,-0.006459211422882034
14.292,-0.002729522227259069
14.296,-0.014765866502918392
14.3,0.014235921986841878
14.304,-0.003927124366462304
14.308,0.013676334941161593
14.312,0.000518092259300921
14.316,0.014296394509063523
14.32,0.0025677022578309877
14.324,0.00853292217095629
14.328,0.007191535782594244
14.332,0.006233780357470841
14.336,0.0034809363765707507
14.34,-0.0023253119328159595
14.344,0.019160857714560484
14.348,-0.009056272875357594
14.352,6.88572278819204e-05
14.356,0.0001983850157567174
14.36,0.0041171812316816506
14.364,-0.004125312043059445
14.368,0.003449024396215461
14.372,-0.0011652002864132606
14.376,-0.01493464120856848
14.38,0.0015542244507036937
14.384,-0.008661808298226341
14.388,-0.013672949776178467
14.392,0.006972759505058418
14.396,0.01321773638584153
14.4,0.0173618096774249
14.404,0.022770782429096637
14.408,0.004236946460316068
14.412,0.018039165114140953
14.416,0.06117177023054599
14.42,0.04240710083320576
14.424,0.07188448812731336
14.428,0.07288108925706427
14.432,0.0950465499294568
14.436,0.10223747777025137
14.44,0.12752036531995664
14.444,0.1347858721746163
14.448,0.1378451237255839
14.452,0.1374936161790991
14.456,0.15267651799201734
14.46,0.1360595911498617
14.464,0.14697129147490087
14.468,0.16020140568094432
14.472,0.13603864775860464
14.476,0.11645753026306428
14.48,0.09412762958724845
14.484,0.06108788518955433
14.488,0.05323698931465958
14.492,0.06632593660098875
14.496,0.03407813525384129
14.5,0.0251100830896875
14.504,0.022274706461299944
14.508,0.006768399315868586
14.512,4.802958530852018e-05
14.516,0.007997439356081904
14.52,-0.0031941494550996423
14.524,-0.0036577118520178388
14.528,-0.0054128869367546465
14.532,0.006718575026568899
14.536,-0.0014131975765704998
14.54,-0.0012480974794732492
14.544,0.006279716426410123
14.548,-0.0012458744414378495
14.552,-0.0026868496421199274
14.556,0.004755640112010432
14.56,0.00670859578947193
14.564,-0.001457399946246424
14.568,0.0008113533836346017
14.572,-0.00782364286248099
14.576,-0.008653636189692867
14.58,0.007470327483959803
14.584,0.0035818942360589913
14.588,0.0016601876474469758
14.592,-0.005408915584224561
14.596,-0.019427716773358934
14.6,-0.034052916351941784
14.604,-0.0626978875793892
14.608,-0.098603712851481
14.612,-0.1377427027141494
14.616,-0.13236356858278742
14.62,-0.12590460409640566
14.624,-0.07554601688238091
14.628,-0.006630312905937651
14.632,0.09315893653701378
14.636,0.21779941434300457
14.64,0.40489765748966733
14.644,0.6268176672091814
14.648,0.7915533749693946
14.652,0.9437331392951297
14.656,0.9953707062101814
14.66,0.9433252981843873
14.664,0.8192132403741296
14.668,0.600087155742434
14.672,0.3973043516502336
14.676,0.20384261301223142
14.68,0.061670822482540306
14.684,-0.07025479863382954
14.688,-0.14451422746298218
14.692,-0.19041602261604026
14.696,-0.2496343187691697
14.7,-0.24706617187355429
14.704,-0.17356868324037844
14.708,-0.1302309665452555
14.712,-0.057464963907538115
14.716,-0.0371209573507798
14.72,-0.020400366923923573
14.724,-0.006486551889672869
14.728,0.00656196574814001
14.732,-0.0019730753612824535
14.736,-0.004134294448808629
14.74,-0.0008003847981317665
14.744,-0.011155296146427298
14.748,0.00599299438378414
14.752,-0.01527030112335141
14.756,-0.001128660386643166
14.76,0.011792162963767706
14.764,0.008317445621244802
14.768,0.012518640598862058
14.772,0.0075744514007752345
14.776,0.021858175837852514
14.78,0.021719044070253466
14.784,0.019672912778303128
14.788,0.027709765739651733
14.792,0.029701633729422944
14.796,0.022163515022350744
14.8,0.018133882720239247
14.804,0.041498643172634575
14.808,0.04923407875234148
14.812,0.0619535710415265
14.816,0.04979081197720042
14.82,0.059044475484716086
14.824,0.0825178458768947
14.828,0.08786153683445626
14.832,0.08118447374762797
14.836,0.1160262352608609
14.84,0.10667598617745952
14.844,0.12926996708501534
14.848,0.16624157586856714
14.852,0.18531646225867904
14.856,0.1694350969790105
14.86,0.19282518603668702
14.864,0.21088372390916718
14.868,0.24221566758227658
14.872,0.23281826909058773
14.876,0.24550820871928977
14.88,0.27727396639649343
14.884,0.26833089552359896
14.888,0.2881935264199075
14.892,0.2735323933898414
14.896,0.29222790524032183
14.9,0.28117899587990214
14.904,0.2891809283796717
14.908,0.3081757182600427
14.912,0.29742029886158183
14.916,0.29098676213712493
14.92,0.2811426229991326
14.924,0.2791738687928079
14.928,0.27557396995442685
14.932,0.27216638274945665
14.936,0.2246329567456939
14.94,0.2300833479094018
14.944,0.22668439048425407
14.948,0.21018425066408172
14.952,0.20088311617247934
14.956,0.18500213802461196
14.96,0.1647494962099133
14.964,0.14817360042949856
14.968,0.13696416803153472
14.972,0.13735705375787904
14.976,0.10559186735889424
14.98,0.10001395368352832
14.984,0.09096658510990308
14.988,0.09404029760881366
14.992,0.06558060027581597
14.996,0.06917380386751777
15.0,0.06375782648319708
15.004,0.04348361448673712
15.008,0.03549645615564192
15.012,0.02855389707449117
15.016,0.024237006918992988
15.02,0.030945194912668474
15.024,0.02092099878431171
15.028,0.017715082069506834
15.032,0.001347434101230961
15.036,0.0005930980794798084
15.04,0.029748908084772
15.044,0.004911351124290503
15.048,-0.0023997506215019584
15.052,0.01855912008554364
15.056,0.006171033985984885
15.06,0.00841107016519966
15.064,0.000668552649027383
15.068,-0.0016002395529044647
15.072,-0.0004753321599807695
15.076,-0.01289438343623046
15.08,-0.00017062183867078248
15.084,0.003495148783170988
15.088,0.018905683144641236
15.092,0.0011588131384574645
15.096,-0.02312053855617134
15.1,-0.0007771112139867073
15.104,0.027513995085145057
15.108,0.00875005454268641
15.112,-0.008046545749102414
15.116,0.005955768000193695
15.12,-0.007388283901579178
15.124,-0.013515523991375268
15.128,-0.003467821192474174
15.132,0.0009263822504670798
15.136,-0.018713776088235035
15.14,-0.011486090777016265
15.144,0.00010743118515600317
15.148,-0.004078289347194648
15.152,0.0039518683246002415
15.156,-0.012141184118198948
15.16,0.00715085572864208
15.164,-0.011819168235312297
15.168,0.016462600262010428
15.172,-0.01709101956834471
15.176,-0.010802555220993097
15.18,0.004395510823833624
15.184,0.01703241957743367
15.188,0.0038192524909827735
15.192,0.006746388485843172
15.196,0.001996395651139407
15.2,-0.007372303083378888
15.204,-0.0004256111330849374
15.208,-0.005366542681969156
15.212,-0.0028570717283652007
15.216,0.01825109662791801
15.22,0.008654868350414695
15.224,0.030278134852536713
15.228,0.02293194841607514
15.232,0.049478916624173315
15.236,0.05377677374824487
15.24,0.08618116112534371
15.244,0.08964731533622619
15.248,0.11327979426400159
15.252,0.10733527622963246
15.256,0.1280508110696469
15.26,0.12808181845661987
15.264,0.141239222177782
15.268,0.14676909062110888
15.272,0.1423771593083407
15.276,0.13393844931290105
15.28,0.12489478016043279
15.284,0.1055663681983121
15.288,0.106039517934232
15.292,0.10903713871160611
15.296,0.07229031149421734
15.3,0.06023282878660983
15.304,0.07823393406129676
15.308,0.04162483914277836
15.312,0.04042245698437951
15.316,0.034548595352255185
15.32,0.02734561851617368
15.324,-0.00034401493803623735
15.328,0.008103934889662417
15.332,-0.009076945341643269
15.336,0.029188273084319528
15.34,-0.012885950327596339
15.344,-0.008543275085157741
15.348,-0.009214266984173441
15.352,-0.014251224859112573
15.356,0.013944514257833648
15.36,0.024463200889496065
15.364,-0.004624784469567071
15.368,-0.013132324245647076
15.372,-0.022331282610761297
15.376,-0.002421596093354037
15.38,-0.003154334628351447
15.384,-0.00651154961664193
15.388,0.0021961496974973083
15.392,0.003853258804586325
15.396,0.0028068704146755126
15.4,-0.004703343370912074
15.404,-0.01579172758320285
15.408,-0.005941968676377706
15.412,-0.028202403079762257
15.416,-0.04537172996869126
15.42,-0.08058878145637642
15.424,-0.1369592311692103
15.428,-0.1585417449536421
15.432,-0.14908483269783773
15.436,-0.12075878428830061
15.44,-0.04412211572347576
15.444,0.036458522818382064
15.448,0.15898010321597492
15.452,0.30418614147188755
15.456,0.49037248140873446
15.46,0.7042030228255234
15.464,0.877096163213336
15.468,0.9830006022284138
15.472,1.004118068942941
15.476,0.8922237562682469
15.48,0.7135807606874859
15.484,0.5026774585972204
15.488,0.32119448443309145
15.492,0.15882989078719076
15.496,0.009168764069269881
15.5,-0.08830420116358838
15.504,-0.20604554153451332
15.508,-0.23712345876508026
15.512,-0.24422240895070985
15.516,-0.2184878340816525
15.52,-0.131400999452215
15.524,-0.09771114597008901
15.528,-0.05568022870994903
15.532,-0.023002203427142223
15.536,-0.028786673828106242
15.54,-0.01014548768743968
15.544,0.009590884361458388
15.548,-0.005697095056762647
15.552,-0.007287276387554952
15.556,0.0144484429801657
15.56,0.015165058430120027
15.564,0.007441526212847133
15.568,-0.0016434847651678394
15.572,0.0013032212971192682
15.576,-0.003368576801683517
15.58,-0.004080425990077915
15.584,-0.0031241956055929852
15.588,0.0028934888807900594
15.592,0.00082944806348202
15.596,-0.0019583744846241365
15.6,0.018828027746482377
15.604,0.022444744274330686
15.608,0.04113827360243195
15.612,0.022102378626572126
15.616,0.0370812740612583
15.62,0.043312466232811715
15.624,0.04448820302800905
15.628,0.06212473649913856
15.632,0.07092891260215736
15.636,0.07580010157728063
15.64,0.08017140047358103
15.644,0.09018732666429402
15.648,0.09191387205737167
15.652,0.11009468707244412
15.656,0.12514737968390213
15.66,0.1338872615042928
15.664,0.1637041050504963
15.668,0.1857185297509071
15.672,0.17922025802116393
15.676,0.20560025175597535
15.68,0.20660792795841967
15.684,0.22759426382497847
15.688,0.2367347845960175
15.692,0.26174188003172594
15.696,0.25990699197364336
15.7,0.28647978992126305
15.704,0.2820977968457706
15.708,0.28462445800851816
15.712,0.28340434439001233
15.716,0.3014468552109628
15.72,0.3089482310982413
15.724,0.3018936410288597
15.728,0.3188122571211016
15.732,0.306136600772821
15.736,0.2824161559434064
15.74,0.2743202173676802
15.744,0.27270940428472673
15.748,0.2488172556297613
15.752,0.2569071567450429
15.756,0.23597078589669893
15.76,0.22130290528342159
15.764,0.2114756624749718
15.768,0.20739431782834092
15.772,0.17732702220123428
15.776,0.16001689372061934
15.78,0.16201326386496262
15.784,0.1427807583818375
15.788,0.11660544065520856
15.792,0.1072159922052412
15.796,0.09719116370657573
15.8,0.08771614125667895
15.804,0.06022181632362911
15.808,0.04890375175400405
15.812,0.04685032469604268
15.816,0.038315412741772095
15.82,0.034580799192127365
15.824,0.04120386369095461
15.828,0.027741977879944625
15.832,0.026655676229671323
15.836,0.008340245131274496
15.84,0.012432547092047944
15.844,0.019904015146112966
15.848,0.017423840079824067
15.852,0.002077609646439404
15.856,0.009143894157995727
15.86,0.028026903114511195
15.864,0.004637180683701556
15.868,-0.003119829344749027
15.872,0.0012622648151736713
15.876,0.003267475784227458
15.88,0.00031079317285536865
15.884,0.0010933790670979247
15.888,-0.01335527024588057
15.892,-0.00880377563861815
15.896,-0.0008704470349534047
15.9,-0.0011839598575382581
15.904,-0.005311443492235174
15.908,-0.0015097859329386133
15.912,0.0008023294863957133
15.916,0.00903509059064934
15.92,-0.0008893920305461707
15.924,0.004065418170208672
15.928,-0.0053624816980620245
15.932,0.005759220516084718
15.936,0.0037844835189176883
15.94,0.008677354712576945
15.944,0.007148059248916356
15.948,0.005896732048748654
15.952,-0.00097768224179959
15.956,0.002453858595667122
15.96,0.010638142550958827
15.964,-0.006518671514208197
15.968,-0.006282677124655248
15.972,0.0018152553389712495
15.976,0.0041534294503425585
15.98,-0.00824063303619615
15.984,-0.0007473096136016477
15.988,-0.0009397060475747173
15.992,-0.02215244555695953
15.996,-0.0021953237830623445
16.0,-0.0015719394904472365
16.004,-0.001600345602133982
16.008,0.014164497746322165
16.012,-0.012147102678311176
16.016,-0.008224640523780734
16.02,-0.026080196004856875
16.024,-0.004730396986316193
16.028,-0.0038116112551348363
16.032,-0.0048402265914253674
16.036,0.011530160239805456
16.04,0.009378158187927123
16.044,0.002059802393021639
16.048,-0.0016334511598916383
16.052,0.01353016346754392
16.056,0.004825673194320607
16.06,-0.0006572159714928342
16.064,-0.006173287809194525
16.068,0.011228400989451687
16.072,0.02924721763129319
16.076,0.05211167209253054
16.08,0.039298462858318624
16.084,0.04204626746436683
16.088,0.0503916662717913
16.092,0.08149701211874477
16.096,0.0727547605609357
16.1,0.11034730661105785
16.104,0.1266980794608885
16.108,0.1349586587380707
16.112,0.13806722688398815
16.116,0.15248931622541584
16.12,0.151548272340586
16.124,0.14125333844524177
16.128,0.16299206208298242
16.132,0.13302267662502631
16.136,0.13352457861427888
16.14,0.08873041598204875
16.144,0.11158142928011294
16.148,0.09897943193457562
16.152,0.07038287738454553
16.156,0.06238677840430777
16.16,0.05045372477579148
16.164,0.028120359556786878
16.168,0.031400507680333326
16.172,0.0108824039437554
16.176,0.00743835834907477
16.18,0.020670525783596544
16.184,0.016115585371004725
16.188,-0.0028579677531231015
16.192,-0.004628660067234913
16.196,-0.00475754859655733
16.2,0.008365038183753839
16.204,-0.009380734957332906
16.208,0.0039268389495954615
16.212,0.007672183306429368
16.216,-0.0007700009938504918
16.22,0.010161142799826555
16.224,-0.0030113801506362545
16.228,-0.0021224431694651493
16.232,-0.009765227076498205
16.236,0.0101701055008685
16.24,-0.007694785209379553
16.244,0.0033480069888057367
16.248,-0.001327253982946535
16.252,-0.012664581557193081
16.256,-0.012423442194087624
16.26,-0.002161390684528152
16.264,-0.032386014566183965
16.268,-0.07314403736798454
16.272,-0.09533225789819647
16.276,-0.13192985252380465
16.28,-0.11166668008846953
16.284,-0.13294005055280808
16.288,-0.10053447731609479
16.292,-0.01692361991422952
16.296,0.042766107546394025
16.3,0.1868077964850376
16.304,0.3686530779727853
16.308,0.5428751871458459
16.312,0.7286850131664435
16.316,0.9074122650432859
16.32,1.009760882603355
16.324,0.9758597924111043
16.328,0.8406057344038417
16.332,0.6545146871664527
16.336,0.449292115001997
16.34,0.2685045438054568
16.344,0.1194440890453564
16.348,-0.012680348839577232
16.352,-0.122988607620891
16.356,-0.21736359841656636
16.36,-0.25625617643887155
16.364,-0.2330157016047604
16.368,-0.21072670981368596
16.372,-0.14093150060724574
16.376,-0.0798936012893655
16.38,-0.053543478282567274
16.384,-0.028379761819888397
16.388,-0.007391196718485862
16.392,0.00337497993840078
16.396,0.010686072128820485
16.4,0.0067942569061611394
16.404,0.001832983967350823
16.408,-0.006004534581579003
16.412,-0.008818002053493559
16.416,-0.0026763471142613195
16.42,0.00720732795876201
16.424,0.007311940125134549
16.428,-0.016021748918768078
16.432,-0.001618292731999739
16.436,0.019814457288118634
16.44,0.010406387467131977
16.444,-0.0023488310382039253
16.448,0.038000403033396836
16.452,0.017242240983566488
16.456,0.02498959238930965
16.46,0.029338617155786565
16.464,0.026503807292320446
16.468,0.0284340927927054
16.472,0.06320040647206687
16.476,0.059076891690329994
16.48,0.06514748311957475
16.484,0.07141985688722818
16.488,0.06520796279422407
16.492,0.09844957098840192
16.496,0.0885004077232353
16.5,0.11180164426041797
16.504,0.10532518614639483
16.508,0.11468533061682026
16.512,0.15216478760391375
16.516,0.15515840564407105
16.52,0.15785040359822614
16.524,0.19769288036257462
16.528,0.2278954106150644
16.532,0.23466015942222168
16.536,0.2317148390690614
16.54,0.2471421300331092
16.544,0.26772999009669846
16.548,0.28070675104961523
16.552,0.27532957835444033
16.556,0.28686607051351665
16.56,0.29562700004317005
16.564,0.3024793798467807
16.568,0.29807107007804123
16.572,0.2987567152271447
16.576,0.31239550537395777
16.58,0.3074418927884443
16.584,0.29504200777183526
16.588,0.3006476045303858
16.592,0.27117460827786816
16.596,0.28139879048767413
16.6,0.25944743809729204
16.604,0.274501914504133
16.608,0.2167568264232209
16.612,0.20800922591461965
16.616,0.20485354829551927
16.62,0.19014864829155032
16.624,0.19113268451269871
16.628,0.15052947183320461
16.632,0.15213683654299043
16.636,0.1410250740613536
16.64,0.12332242743792177
16.644,0.09420609478898247
16.648,0.10617760124341921
16.652,0.09347816892454015
16.656,0.07710271367605577
16.66,0.06392603466484065
16.664,0.055772376749888795
16.668,0.04518991503718372
16.672,0.04565982128811611
16.676,0.03360797407985727
16.68,0.019579391942859237
16.684,0.01301794925787643
16.688,0.012038320445248918
16.692,0.018393199562496673
16.696,0.013016671878752105
16.7,0.012999288853375784
16.704,0.013805362464742
16.708,0.0008168340707392033
16.712,0.020334299725503834
16.716,0.0018405794679844999
16.72,-0.000762523229317043
16.724,0.007629719741545285
16.728,-0.01617496617400006
16.732,-0.006206721369352029
16.736,0.01111973968360997
16.74,-0.016371889734567296
16.744,0.011938344182984844
16.748,0.015687874677150025
16.752,-0.003261506754220207
16.756,0.0032413368845105764
16.76,0.01143056272431971
16.764,-0.004491270442698197
16.768,0.008807071732394214
16.772,-0.006617410581529106
16.776,-0.00470801856317674
16.78,-0.007944520890863626
16.784,0.003461329942348501
16.788,0.011604408657802118
16.792,-0.001823713185341343
16.796,-0.012700298456412235
16.8,-0.010818585650022156
16.804,0.003951859156641962
16.808,0.018445196899404263
16.812,0.003940014017345157
16.816,-0.0038670620917860723
16.82,0.007663191224123121
16.824,-0.0023939223004579087
16.828,-0.0037817870215454334
16.832,-0.009583105683873046
16.836,0.014087128773966204
16.84,-0.025386899510568755
16.844,0.007988944540334879
16.848,-0.004616989460692782
16.852,-0.004063813947150262
16.856,0.01699794370435745
16.86,-0.007003533851101063
16.864,-0.0065532641436057745
16.868,-0.0008708071835961475
16.872,0.004877549781760523
16.876,-0.0031893101049858385
16.88,-0.013745747631719249
16.884,-0.005507866275223171
16.888,0.017663839386654806
16.892,0.008030036278278344
16.896,0.015167722982390755
16.9,0.012586821055894867
16.904,0.014539885027618108
16.908,0.04541798791581159
16.912,0.03595347224865489
16.916,0.04428220013187471
16.92,0.072101401717238
16.924,0.06756955900457326
16.928,0.08323541864125653
16.932,0.10375533394806456
16.936,0.11742866183924269
16.94,0.13226297118851502
16.944,0.16048149548984844
16.948,0.1497839982738883
16.952,0.12595191576660741
16.956,0.1525111734810908
16.96,0.14538421677746227
16.964,0.13775692324611583
16.968,0.1292190411888953
16.972,0.11376500692408714
16.976,0.09949817901386553
16.98,0.09163534088794754
16.984,0.06582487192424577
16.988,0.04838709433975796
16.992,0.07604565256228848
16.996,0.028188503456667013
17.0,0.027587202600971344
17.004,0.004534084363309161
17.008,0.015092629370341618
17.012,0.00036902398841432045
17.016,0.002161745529933129
17.02,0.01480936829501454
17.024,0.0075316552245800195
17.028,0.0074518316144326635
17.032,-0.016628695932770592
17.036,0.019016100430888506
17.04,-0.011542004774132471
17.044,0.015499462917575861
17.048,0.010333742602959222
17.052,0.0058371178899829885
17.056,-0.008516329831498935
17.06,0.0015329832446201188
17.064,-0.004701356006513934
17.068,0.0002897641526742401
17.072,-0.0025241186999682193
17.076,-0.020518069116247557
17.08,0.010668652713617385
17.084,-0.0027479630552626156
17.088,-0.010665596002451795
17.092,-0.020491577969007677
17.096,-0.028879842009689252
17.1,-0.06924260199389912
17.104,-0.11793016426292596
17.108,-0.1241605513005326
17.112,-0.14061137437186794
17.116,-0.139770975195289
17.12,-0.11252807281192137
17.124,-0.03670909699383335
17.128,0.03766985841597843
17.132,0.16373043232721343
17.136,0.3261256538234981
17.14,0.535371098839809
17.144,0.726221675302057
17.148,0.8956297281007436
17.152,1.0116933885846986
17.156,0.9817141519789567
17.16,0.8657842703823074
17.164,0.6747110884144033
17.168,0.46593702960270594
17.172,0.25780203602560037
17.176,0.1278277734496986
17.18,-0.008888086617869998
17.184,-0.12156880217591098
17.188,-0.2003115641164365
17.192,-0.2340165944225564
17.196,-0.2558777752228402
17.2,-0.20758693698132116
17.204,-0.1550798319377717
17.208,-0.06940506579102794
17.212,-0.03614910120000172
17.216,-0.04162265442205762
17.22,-0.022233167483595433
17.224,-0.0032291528191928137
17.228,-0.0047397418143986045
17.232,-0.012557828738143163
17.236,0.02051519981427225
17.24,0.004550458742926586
17.244,0.006599181464818852
17.248,-0.004537819264634741
17.252,0.01026835789606686
17.256,6.428624142554079e-05
17.26,0.0020492108778881165
17.264,0.012233169986347223
17.268,-0.008660135747323956
17.272,0.02541689846199526
17.276,0.013445279288971242
17.28,0.027015056224460113
17.284,0.006499515607415714
17.288,0.011590502535890283
17.292,0.013349313103768346
17.296,0.03225204349562563
17.3,0.03587890983995244
17.304,0.03678475341033464
17.308,0.038281980760187184
17.312,0.04357010227516168
17.316,0.06440872202796849
17.32,0.06975027728944214
17.324,0.07791282430866582
17.328,0.11142968124177222
17.332,0.10710955488080647
17.336,0.13332693573574464
17.34,0.1286205028514705
17.344,0.15025061487616928
17.348,0.16148948779495156
17.352,0.15954825661946315
17.356,0.20535526272626767
17.36,0.2041471867875911
17.364,0.22706906572059937
17.368,0.22566190204249242
17.372,0.24437090947443554
17.376,0.2492388061279847
17.38,0.28100489252516864
17.384,0.2811584315309349
17.388,0.2896073099759893
17.392,0.30575915248406027
17.396,0.3082128147203638
17.4,0.30692190765042004
17.404,0.28576735446003826
17.408,0.2918273454552661
17.412,0.28565108374083364
17.416,0.29803633544582514
17.42,0.2857967063275891
17.424,0.26189650577847545
17.428,0.2641592970056219
17.432,0.240058516524357
17.436,0.24232044900539743
17.44,0.21325386413944272
17.444,0.2213647764280851
17.448,0.20564936811739384
17.452,0.20647337688931716
17.456,0.18132505776831587
17.46,0.15418187507787853
17.464,0.15243578668626082
17.468,0.11654947203335499
17.472,0.10772556687896763
17.476,0.1081628464542414
17.48,0.07146812610083512
17.484,0.0816952130153347
17.488,0.06171517660146327
17.492,0.06363490817546118
17.496,0.0434022221063967
17.5,0.050818897355709644
17.504,0.03997805501847242
17.508,0.04777034112170271
17.512,0.028543432950172115
17.516,0.016174798760734792
17.52,0.017397841395429582
17.524,0.002992995670234663
17.528,0.017571305889448482
17.532,0.01693287687198436
17.536,0.0336469016186669
17.54,0.001002655663755468
17.544,0.003107733297511164
17.548,-0.0011515112744586286
17.552,0.005764714367855911
17.556,0.006680724542553242
17.56,0.001702827827224301
17.564,0.01259883001085951
17.568,-0.004831593597509903
17.572,0.010886970124535947
17.576,0.006165421795798754
17.58,0.0004700133661751794
17.584,-0.0027057135977699683
17.588,0.024597980276120927
17.592,-0.007924260855202389
17.596,0.003160570059335943
17.6,-0.007369422759620537
17.604,0.01795284750710662
17.608,0.008938157519106683
17.612,-0.006733270750438973
17.616,0.005161815015399336
17.62,0.002602403168017243
17.624,-0.005148308982363243
17.628,0.007594208058293946
17.632,0.003901801016090124
17.636,0.0021630395755623194
17.64,-0.0004150298749199071
17.644,0.0043134105747778635
17.648,0.002295869437152453
17.652,0.0005923900663961734
17.656,-0.006408926318968355
17.66,0.016939051043228893
17.664,-0.01050205781460574
17.668,0.004280336260950713
17.672,-0.003194564259500576
17.676,0.017611018708104043
17.68,-0.009004498592628507
17.684,-0.007294788138440284
17.688,-0.009590530174478721
17.692,0.0034299924818151062
17.696,-0.013384960917694939
17.7,-0.0041894666169781415
17.704,-0.020522252589958986
17.708,0.004044766636716726
17.712,-0.0023824378465412775
17.716,-0.010803022832506613
17.72,0.017042326876815138
17.724,-0.003928463645041961
17.728,0.021155878685330136
17.732,0.011516434137912552
17.736,0.04138786289404427
17.74,0.0413639432528756
17.744,0.03398668898763908
17.748,0.046716994803753964
17.752,0.0751430367515425
17.756,0.08062299482061465
17.76,0.09607883210839104
17.764,0.12465223828841959
17.768,0.11741190981865342
17.772,0.13676075421049314
17.776,0.1535683732906742
17.78,0.15692020418253402
17.784,0.1483130553731284
17.788,0.14429164695163227
17.792,0.12346143597553558
17.796,0.12082151323727813
17.8,0.12264047802499797
17.804,0.10448853735097477
17.808,0.09220165517159808
17.812,0.08739596195907255
17.816,0.051325320155448134
17.82,0.04819577484312486
17.824,0.041309908782313484
17.828,0.02292177472551426
17.832,0.036512883078761514
17.836,0.0251154950961469
17.84,0.01418402862606107
17.844,0.02568309140495319
17.848,-0.009812432373751978
17.852,0.003296958457351974
17.856,0.00580720414511485
17.86,-0.007817877857288475
