time,ecg
0.0,0.00178475826673812
0.004,0.00891912232023792
0.008,-0.015011761604116665
0.012,-0.009515790549470063
0.016,-0.0027925672802191904
0.02,-0.013327940776341116
0.024,-0.002717167640385787
0.028,-0.003263489471352493
0.032,0.0008710658656117274
0.036,-0.0005688342910697592
0.04,0.010693485294074356
0.044,0.0057300469449311185
0.048,-0.0007103127543766262
0.052,-0.0033326235518453345
0.056,-0.0004755810991048123
0.06,-0.0002986104290864268
0.064,0.025187562908851855
0.068,-0.014575272127511914
0.072,-0.009262750430983221
0.076,-0.010729259346949942
0.08,0.0026927168382693046
0.084,0.0022967334663220335
0.088,-0.005730717934939827
0.092,0.008961176671209568
0.096,0.0036965686444630262
0.1,0.009381003146720945
0.104,0.01203454352911591
0.108,-0.021310448859382873
0.112,0.006856166740291395
0.116,-0.012900604723710072
0.12,0.0024941262471765047
0.124,-0.0007289600486802335
0.128,-0.00030213750588172633
0.132,-0.012046213313376334
0.136,0.01030486543170421
0.14,-0.012904949582297272
0.144,0.0075053366396207345
0.148,-0.014318902477619744
0.152,-0.0001785568149520531
0.156,0.018043922084154663
0.16,0.023616328729357938
0.164,-0.016187132355572502
0.168,-0.007045249813699628
0.172,-0.005226308478762268
0.176,0.022551218050887903
0.18,-0.0006817768961995857
0.184,0.010749810415255944
0.188,0.003003645789348633
0.192,-0.011978832654861297
0.196,-0.01857182545369053
0.2,-0.006080598101011637
0.204,0.02326294826994736
0.208,0.0027480803369928147
0.212,0.010849618895333693
0.216,-0.01365204729170505
0.22,-0.002355815721543235
0.224,0.00926517678279141
0.228,-0.008540376779083706
0.232,0.0030718230674448795
0.236,-0.0031353321555853235
0.24,0.016684558264325768
0.244,0.016190038407617798
0.248,0.024077354760249952
0.252,0.03245725375129687
0.256,0.02959867560919769
0.26,0.05173791228715179
0.264,0.04728965078222431
0.268,0.07237482213515847
0.272,0.06040323936296632
0.276,0.08715326118922224
0.28,0.13208038759687005
0.284,0.12833141869261422
0.288,0.139791652140924
0.292,0.1342743357560671
0.296,0.13715013117871008
0.3,0.14735639835760903
0.304,0.14742095089226667
0.308,0.16165796694152942
0.312,0.14386757749505602
0.316,0.12331081803794589
0.32,0.10957948360041957
0.324,0.10219823068967222
0.328,0.06692481350884379
0.332,0.046904122019460724
0.336,0.06062201309300658
0.34,0.042425721706531035
0.344,0.018754259693778134
0.348,0.002797694914994101
0.352,0.026182168541304857
0.356,0.006989321314335799
0.36,0.01242282126021297
0.364,0.0030247287509934584
0.368,0.0033691072497635728
0.372,-0.0035512144319233695
0.376,0.0007116373029646552
0.38,0.006667135798559998
0.384,-0.002226906875244337
0.388,-0.0030223563093300324
0.392,0.006247326639826673
0.396,0.0068360148528203695
0.4,-0.011324585022221735
0.404,-0.00026291607598179174
0.408,-0.005224537274078426
0.412,0.00014226481953575807
0.416,0.01433346029367939
0.42,0.0035408434292311577
0.424,0.02141306182935216
0.428,0.001299861972724596
0.432,-0.004640509804421946
0.436,-0.008616316206650584
0.44,-0.01887024273963539
0.444,-0.038458404742877074
0.448,-0.08284885631941542
0.452,-0.11091848763505305
0.456,-0.1445075432202781
0.46,-0.13583784429523324
0.464,-0.14661511802736427
0.468,-0.07878778744071467
0.472,-0.022465949547922102
0.476,0.09795215829096322
0.48,0.22506300311516209
0.484,0.38452430612936855
0.488,0.612976792284739
0.492,0.7746751411377589
0.496,0.9454003190957249
0.5,1.0067788380400948
0.504,0.9593356176673279
0.508,0.7831427962919909
0.512,0.5964135524136839
0.516,0.4079203679162625
0.52,0.22703841851719228
0.524,0.07864437602113863
0.528,-0.030328004826685146
0.532,-0.15803633927140281
0.536,-0.21591469683881234
0.54,-0.24954840035513626
0.544,-0.24926453730080653
0.548,-0.18201613563514568
0.552,-0.1414300542597455
0.556,-0.07453747291880325
0.56,-0.04829213461057921
0.564,-0.009347867368602752
0.568,-0.01234731634372686
0.572,-0.01881508371828254
0.576,0.008976825796080315
0.58,-0.005194766028768326
0.584,-0.003124274987464557
0.588,-0.00820390924954833
0.592,0.013526416502423267
0.596,0.005318369424769582
0.6,-0.002798189490889935
0.604,-0.014917200855893157
0.608,0.03042373143227091
0.612,0.026446105981956125
0.616,0.02270058983183442
0.62,0.0031825194850383966
0.624,0.00752625174748588
0.628,0.019293343372633335
0.632,0.009583894498054114
0.636,0.01240591410013295
0.64,0.04126207085405783
0.644,0.031157023179704504
0.648,0.02625040252736476
0.652,0.053473590407419495
0.656,0.0455041936670344
0.66,0.0395760641810525
0.664,0.05699783643553748
0.668,0.07301261200031872
0.672,0.09105251892473538
0.676,0.10205918790131704
0.68,0.12487103174000752
0.684,0.1231644038551719
0.688,0.1344141745226895
0.692,0.1655338057434776
0.696,0.17721987045903115
0.7,0.17982462163239277
0.704,0.19940458495557628
0.708,0.20606209441315612
0.712,0.2131269882272456
0.716,0.26004658156374616
0.72,0.24516217938950752
0.724,0.26501228292991524
0.728,0.2571677861562924
0.732,0.28854098482960044
0.736,0.2764089358912513
0.74,0.31083918780657305
0.744,0.3158218579750062
0.748,0.3054164865325046
0.752,0.30090891142847825
0.756,0.2959736061694288
0.76,0.2935841619339336
0.764,0.2925598647162111
0.768,0.28207391939529747
0.772,0.2821383088191949
0.776,0.2528793745362725
0.78,0.2658618874341488
0.784,0.23384763259364102
0.788,0.21728981715036383
0.792,0.2144414258948354
0.796,0.20074981411336218
0.8,0.16459249697969305
0.804,0.16262176875577375
0.808,0.13136283959647613
0.812,0.13231363438004395
0.816,0.11920829994786797
0.82,0.11556793950598515
0.824,0.09246385415296199
0.828,0.08334244744280425
0.832,0.09121642340574171
0.836,0.08898788271229727
0.84,0.05016056544323143
0.844,0.06143574423283644
0.848,0.047824989966475676
0.852,0.020061205070423273
0.856,0.023796724214130722
0.86,-0.0036018418195517196
0.864,0.025535569101127257
0.868,0.007754520846784697
0.872,0.016625958751997977
0.876,0.038245243047164444
0.88,0.026145616482854683
0.884,0.0005995064754095985
0.888,-0.0034353903700125926
0.892,0.018247204823166458
0.896,-0.005824859659676318
0.9,0.01324392663186387
0.904,0.02997187320947494
0.908,0.008790172863509811
0.912,0.013416282943138416
0.916,0.0118926763915376
0.92,-0.004644368649808578
0.924,0.003605595483419063
0.928,-0.009033369389579781
0.932,0.013297395156786336
0.936,-0.010554683391015925
0.94,0.007229425702912634
0.944,0.01147865326411298
0.948,-0.004798417143066306
0.952,-0.007124264615853179
0.956,-0.0016351000742659196
0.96,-0.008879984914514813
0.964,0.001595566257977053
0.968,-0.009147313832006974
0.972,-0.008429748534756542
0.976,0.005480230678416036
0.98,0.006183702680991848
0.984,-0.0029287899397759587
0.988,-0.016458282840831746
0.992,0.01171598406362855
0.996,-0.0044722983646197905
1.0,0.020644283904493743
1.004,-0.0012843763720610756
1.008,0.0014317530802268926
1.012,-0.004181693157735576
1.016,0.0026778256118975855
1.02,0.03519242166851188
1.024,-0.002761136898225425
1.028,0.013975802580553824
1.032,0.0028733958255047322
1.036,0.014848477561073095
1.04,-0.014524399168528778
1.044,0.026652120723341555
1.048,0.01395892564515528
1.052,0.012379843684468551
1.056,0.029983104041265512
1.06,0.02985101453819958
1.064,0.026078930202948766
1.068,0.02415985232464949
1.072,0.07903796578052913
1.076,0.0721738421318327
1.08,0.08265032421411073
1.084,0.09790543006935076
1.088,0.1317058539520606
1.092,0.12445461968527056
1.096,0.14577236523449882
1.1,0.14293122371267936
1.104,0.1371432392287335
1.108,0.15832589879165893
1.112,0.15620140357766915
1.116,0.13078392037042277
1.12,0.1267071885395594
1.124,0.11539559018827934
1.128,0.10487449169283762
1.132,0.10561974209699752
1.136,0.0683926686149714
1.14,0.05491803800434502
1.144,0.04436804198163382
1.148,0.02619197624005218
1.152,0.009584014835820977
1.156,0.0210034433968512
1.16,0.01933582748158115
1.164,0.00982686474295275
1.168,0.006032745107025495
1.172,-0.004576921045297624
1.176,0.005370923333046621
1.18,0.0034898173727351614
1.184,0.005847444887537916
1.188,0.0038934386007840383
1.192,0.004320791763800459
1.196,0.013405125261449503
1.2,0.0058422721286691065
1.204,0.0048710112313783485
1.208,-0.017390980819856277
1.212,0.010552386106764436
1.216,-0.0029704848160250134
1.22,0.0007918012016514573
1.224,-0.01275313747847969
1.228,0.02077220690223416
1.232,-0.0252712793327556
1.236,0.013006637285888096
1.24,-0.0014035923330526492
1.244,-0.03358997508290369
1.248,-0.011475481224859006
1.252,-0.0542699406902736
1.256,-0.11796305916438701
1.26,-0.13169173033318862
1.264,-0.14028253483270497
1.268,-0.12125370262834036
1.272,-0.1065306947726988
1.276,-0.06617040383371657
1.28,0.06402161219277397
1.284,0.1751189064454817
1.288,0.30637169570931905
1.292,0.5247137213496753
1.296,0.7289303612539776
1.3,0.8930092010575108
1.304,0.9826894565686285
1.308,0.9739473658698996
1.312,0.8634702400045224
1.316,0.6875632020925162
1.32,0.485440352326106
1.324,0.26312726558342353
1.328,0.12474422739470534
1.332,-0.005199650876462096
1.336,-0.1154724770276377
1.34,-0.20123997057232038
1.344,-0.22658178409111476
1.348,-0.2274833798319281
1.352,-0.20678236278259873
1.356,-0.14621978001648117
1.36,-0.0808107475177964
1.364,-0.033012488709982545
1.368,-0.028253435058962953
1.372,-0.017782101129731144
1.376,0.0007503616154308354
1.38,-0.011281311518499313
1.384,-0.018776881764846078
1.388,-0.007145738312065112
1.392,0.005586100445700987
1.396,0.01737403032419008
1.4,-0.004721691589189161
1.404,0.0017825610860628814
1.408,0.0053988455768144376
1.412,-0.0016343199905838957
1.416,-0.0011862463569151651
1.42,0.010933984891084356
1.424,-0.0025826186871607607
1.428,0.0038817319089764647
1.432,0.012102153135830577
1.436,0.020387138435019866
1.44,0.005563314927749124
1.444,0.02353699709911068
1.448,0.016699028945292505
1.452,0.02821578931965997
1.456,0.04913273441519733
1.46,0.04747956961313556
1.464,0.07269902567962017
1.468,0.0639202454482183
1.472,0.08381123193836593
1.476,0.09241826953281938
1.48,0.09550578052412004
1.484,0.09443452555922159
1.488,0.1192146125503623
1.492,0.12824852556591756
1.496,0.14169904670852812
1.5,0.16320395832606094
1.504,0.161625884723002
1.508,0.1819311549288769
1.512,0.1949817801022042
1.516,0.2166780016007438
1.52,0.22513343397824576
1.524,0.23865126616679047
1.528,0.25894721891301814
1.532,0.26390778713377333
1.536,0.2778515732611649
1.54,0.2745827872642467
1.544,0.2837435543845183
1.548,0.3169584375892013
1.552,0.29224735738029334
1.556,0.2789263376434665
1.56,0.3022643690108937
1.564,0.28872105585298236
1.568,0.2933599777088367
1.572,0.2834020663465559
1.576,0.2815505156502127
1.58,0.2653390047942414
1.584,0.253055896484202
1.588,0.2546807845488952
1.592,0.20799776475296652
1.596,0.2032093944120033
1.6,0.19401692640264692
1.604,0.17086833048816163
1.608,0.1684547728356785
1.612,0.15302709027006872
1.616,0.15438913611922028
1.62,0.13001681002111695
1.624,0.11557677242025688
1.628,0.10137023203299547
1.632,0.08284651924174669
1.636,0.09126793216495999
1.64,0.08428829343850862
1.644,0.050746174541105846
1.648,0.0706026221802854
1.652,0.04006613986352475
1.656,0.03243715126239607
1.66,0.03865131412499719
1.664,0.03423374599018855
1.668,0.023267816406871065
1.672,0.016506663633938778
1.676,0.028246871576666777
1.68,0.0073516714480584685
1.684,0.010409688331514778
1.688,0.02594554419967174
1.692,-0.006106010562782528
1.696,0.0012353149025374826
1.7,0.01488701301388645
1.704,0.008947631961077828
1.708,0.011823412629153153
1.712,-0.010976702938666618
1.716,0.004959108424353807
1.72,-0.0015040752631593484
1.724,0.023757082985006273
1.728,0.00888020981985114
1.732,0.00037176151197920043
1.736,0.0033062005690058685
1.74,0.000876900004338628
1.744,0.007238037740778751
1.748,-0.008380214801426101
1.752,0.013786102494903876
1.756,-0.013149770410137488
1.76,0.0021209687665447166
1.764,-0.008192103734882933
1.768,0.0004644789834963054
1.772,0.009905878638738586
1.776,-0.017105339605749042
1.78,-0.001682092087535707
1.784,-0.0143887351048478
1.788,-0.0027877130542450566
1.792,-0.014419728903670806
1.796,0.00162073343939964
1.8,-0.0042597321223734495
1.804,0.0074725881994494635
1.808,0.01228658032124634
1.812,0.00010734346019340546
1.816,0.008937559880577898
1.82,0.01382620509585947
1.824,-0.009217952605574712
1.828,0.01435602123197509
1.832,-0.00035703808114935395
1.836,-0.009759443810423086
1.84,0.003031425251109921
1.844,-0.0006331015778072146
1.848,-0.013909342264108553
1.852,-0.010723667190803997
1.856,0.01687193219325321
1.86,0.003631219720733568
1.864,0.016214839616834113
1.868,-0.0019160932322091597
1.872,-0.004484920447467558
1.876,-0.011429886380496652
1.88,0.01773820122377017
1.884,0.015820919821674728
1.888,0.012523711944643096
1.892,0.014999344322653336
1.896,0.04213254893360167
1.9,0.03872720472059258
1.904,0.0501361947623598
1.908,0.05857429238610511
1.912,0.07440607889727917
1.916,0.09846120838187775
1.92,0.09316318871679641
1.924,0.12159120416984577
1.928,0.1420474324106748
1.932,0.14081325804512318
1.936,0.1581786582056074
1.94,0.16338107065761615
1.944,0.15753595125241485
1.948,0.1379506818971099
1.952,0.1344762160963764
1.956,0.1270929706433318
1.96,0.10580659195751882
1.964,0.0912401388617432
1.968,0.07611850744082922
1.972,0.09310287281454432
1.976,0.05188283348584141
1.98,0.053619547983375704
1.984,0.02421518827479522
1.988,0.04160601467669532
1.992,0.014121222337819886
1.996,0.01324121221497229
2.0,-0.00953191177966402
2.004,0.017097858846345924
2.008,0.017231715103881128
2.012,-0.009374019133899398
2.016,0.013308666638375106
2.02,-0.01242278490832031
2.024,0.00688445773664825
2.028,-0.0025536019110055114
2.032,0.013546386510873644
2.036,0.0025929452629111726
2.04,0.009368797274578811
2.044,0.01240580336423318
2.048,-0.0028960949454757013
2.052,-0.000283095446233439
2.056,-0.011116034972569083
2.06,-0.0030405081481398484
2.064,0.01907642146308277
2.068,0.006784213017032267
2.072,-0.013062667956895053
2.076,0.008775038131787309
2.08,-0.014619444567638841
2.084,-0.03041265452364228
2.088,-0.06407920436266729
2.092,-0.10042816022477037
2.096,-0.154755557283879
2.1,-0.1353709244396095
2.104,-0.15350611374822085
2.108,-0.07689397982689454
2.112,-0.015929895326879873
2.116,0.08888716970624361
2.12,0.2132593084834122
2.124,0.3915854541551072
2.128,0.5802908729092122
2.132,0.7819273933667445
2.136,0.9371512427094414
2.14,1.0179364666816981
2.144,0.962987846448563
2.148,0.8062195959658517
2.152,0.6195559345466406
2.156,0.425572391001635
2.16,0.2472043627713908
2.164,0.07414444914442073
2.168,-0.020911365668552236
2.172,-0.14149149551621118
2.176,-0.20969841382604448
2.18,-0.2578541209456837
2.184,-0.22218360962002745
2.188,-0.19206758128946844
2.192,-0.13564130416087067
2.196,-0.07768329651757123
2.2,-0.022979748305051388
2.204,-0.010694541573482555
2.208,-0.014135150687446951
2.212,-0.006516534208579862
2.216,0.0143260108418498
2.22,-0.0015660390753741574
2.224,0.0067612345131342075
2.228,0.009578621233757217
2.232,-0.03221019807712798
2.236,0.015184631388889647
2.24,-0.005280849800082406
2.244,0.0005061868632174125
2.248,0.02057449016737147
2.252,0.02095614590252551
2.256,0.012997478522091658
2.26,0.017259000178343635
2.264,0.022030182780175333
2.268,0.029250929540706676
2.272,0.03370169186868492
2.276,0.02291738181655825
2.28,0.018772455038611705
2.284,0.028548787925528833
2.288,0.03802967830035893
2.292,0.04263632516817204
2.296,0.04024826924233897
2.3,0.06276903601313757
2.304,0.05160217580749464
2.308,0.0778683169941398
2.312,0.08908984549310565
2.316,0.1001456215587727
2.32,0.11967324502040069
2.324,0.13121434542354862
2.328,0.1597288315034688
2.332,0.14628991278752257
2.336,0.1685792240305023
2.34,0.18245312319359583
2.344,0.19651733963309814
2.348,0.19655018711547675
2.352,0.21135309863203916
2.356,0.23665805085537978
2.36,0.23344514271058325
2.364,0.2574703363121569
2.368,0.2647446597877121
2.372,0.27726395163878836
2.376,0.29904357424540295
2.38,0.28272849388133015
2.384,0.3062077965530401
2.388,0.2939255043844049
2.392,0.29538942079109975
2.396,0.302816778999588
2.4,0.29184241724910864
2.404,0.28026795904068996
2.408,0.27838610690634746
2.412,0.2556378855466066
2.416,0.2671082829084552
2.42,0.22092622169978304
2.424,0.2484246173252509
2.428,0.23245408872070936
2.432,0.2284410960668458
2.436,0.219951366049117
2.44,0.19297534975030306
2.444,0.16280810484892896
2.448,0.17643026681622537
2.452,0.12870624062716293
2.456,0.10802188632886803
2.46,0.13255918106033274
2.464,0.10771591394566284
2.468,0.07136341257880371
2.472,0.06579803152183157
2.476,0.07493584002689366
2.48,0.05164952472487414
2.484,0.04486516525740829
2.488,0.0644014339209265
2.492,0.05963228435352545
2.496,0.03379336747158156
2.5,0.025710740076704038
2.504,0.031791782704650384
2.508,0.01330832122308521
2.512,-0.00667543210738172
2.516,-0.01478884127049628
2.52,0.009722766524688736
2.524,0.01729249318800343
2.528,0.006981621573390819
2.532,0.013556210749299849
2.536,0.013435217670646784
2.54,0.017285349527055658
2.544,0.004550152391021101
2.548,0.004854150317924393
2.552,0.0012553228942364298
2.556,-0.0013344562741872588
2.56,-0.014764559610036015
2.564,0.012446178614625537
2.568,-0.0032891259797703494
2.572,-0.003998956752954957
2.576,-0.00510937744272829
2.58,-0.013176609895772916
2.584,-0.000688153420129048
2.588,0.005286588312005257
2.592,-0.0069639745003882165
2.596,0.010440201131517517
2.6,-0.0036380612810726362
2.604,-0.015293712995318396
2.608,0.013760236799009513
2.612,0.002000992083327764
2.616,0.008644276451767527
2.62,0.00887654854062208
2.624,-0.009455607955654284
2.628,-0.005215371443386256
2.632,0.01034542795927786
2.636,0.018353913912133393
2.64,0.0006340352213853311
2.644,-0.006271115948077056
2.648,0.016823882475763163
2.652,-0.006265922459793586
2.656,0.0032899382249394946
2.66,-0.004277662297257552
2.664,0.002690870495233534
2.668,-0.009454346876888528
2.672,-0.0037463094919209057
2.676,-0.006272359688325946
2.68,0.006623687158688259
2.684,0.0016349117420714743
2.688,0.008807760634587396
2.692,-0.008245920561049095
2.696,-0.0020613885645480554
2.7,0.0062949395478027175
2.704,0.0086709530471912
2.708,-0.014303892628845127
2.712,0.0034531349197218482
2.716,-0.007653073785020202
2.72,0.009907189890831902
2.724,0.019952770159117363
2.728,-0.02394467324989593
2.732,-0.0031396524476776182
2.736,0.007880103348940374
2.74,0.007794722765135879
2.744,0.02080496406245251
2.748,0.016986295897660993
2.752,0.017113118000621076
2.756,0.020023184007335805
2.76,0.027852620699915103
2.764,0.04349450046193875
2.768,0.0579534472625142
2.772,0.08127502184160725
2.776,0.09032888582378303
2.78,0.09978914249847297
2.784,0.10975615896291295
2.788,0.12468645910753717
2.792,0.1354515670758352
2.796,0.13983762075755857
2.8,0.15666397835877444
2.804,0.16241684022929329
2.808,0.1320595357075099
2.812,0.14674404718146603
2.816,0.13146150898495815
2.82,0.1133101962507349
2.824,0.11259747993607426
2.828,0.08110359970611188
2.832,0.07268756727284292
2.836,0.0567426230215356
2.84,0.04422499222456756
2.844,0.03817420113760869
2.848,0.02560381608188684
2.852,0.023003886229692593
2.856,0.0063469999838270345
2.86,0.0026573588707340477
2.864,-0.0006331629945908659
2.868,0.0003764593550760415
2.872,0.01271641654159112
2.876,-0.0030053908643133936
2.88,0.007510655630522313
2.884,0.003240680786820693
2.888,-0.004074510494354035
2.892,0.013283704960351462
2.896,0.007466753686224556
2.9,7.451207551757618e-05
2.904,-0.0007817460841551445
2.908,0.0009522494288736425
2.912,-0.01528889926387874
2.916,-0.008252700596294299
2.92,0.004589672900009516
2.924,-0.016003719394695533
2.928,-0.008179465239835836
2.932,-0.006332160202905673
2.936,0.022020448634322943
2.94,-0.010690174257447132
2.944,-0.025909831332315614
2.948,-0.07454487539142488
2.952,-0.09842633521079942
2.956,-0.15065534212973797
2.96,-0.14975253041186998
2.964,-0.12802527491753413
2.968,-0.10534980934941177
2.972,-0.018996689098445114
2.976,0.07712144533987118
2.98,0.1947711726501552
2.984,0.35918945393759144
2.988,0.5579532189628889
2.992,0.7620406943121127
2.996,0.9212264343562842
3.0,1.0030259088084543
3.004,0.9583008578831252
3.008,0.8479479009569872
3.012,0.6562350027010461
3.016,0.4365520790068018
3.02,0.2436288670093595
3.024,0.08619176281240333
3.028,-0.031873321358644104
3.032,-0.1319082742792833
3.036,-0.2119620069434489
3.04,-0.24844137113499146
3.044,-0.23202940404288996
3.048,-0.19099479580210132
3.052,-0.13824676272106853
3.056,-0.07682153352125064
3.06,-0.04502503947507523
3.064,-0.02398208519661104
3.068,-0.005771744159145434
3.072,-0.007136099917931031
3.076,-0.007162641036303383
3.08,0.011224889644222196
3.084,-0.00279022280453788
3.088,0.019931461884895942
3.092,0.00820764305027769
3.096,-0.005711851214656434
3.1,0.01478364205861361
3.104,-0.003124034245671381
3.108,0.02482907050955218
3.112,0.00864451796964215
3.116,0.01336930569313452
3.12,0.010132930800576968
3.124,0.01472932738767018
3.128,0.012445907110113983
3.132,0.008619696660539232
3.136,0.024946315811711157
3.14,0.03605775182000508
3.144,0.018808531236984123
3.148,0.051723943504571976
3.152,0.0486834025864536
3.156,0.04544714152225422
3.16,0.0532377141330539
3.164,0.08524363248278102
3.168,0.08566121825857781
3.172,0.09819375348723498
3.176,0.09562258592679254
3.18,0.1158021017636478
3.184,0.1265596634207526
3.188,0.13475243274916493
3.192,0.15152497326605263
3.196,0.17583101785777272
3.2,0.19523271899921352
3.204,0.19126142387325976
3.208,0.19502836961877515
3.212,0.23861838106070957
3.216,0.25219938698149746
3.22,0.25231759002090076
3.224,0.27792847038628893
3.228,0.2737801722351916
3.232,0.2705440722784476
3.236,0.2741080387305041
3.24,0.2799312339630056
3.244,0.2973257338042153
3.248,0.2948847511478152
3.252,0.2941174284075139
3.256,0.2972805641228405
3.26,0.30348760316017986
3.264,0.28417608979587744
3.268,0.27550955227024343
3.272,0.2692792334644819
3.276,0.2732890008692912
3.28,0.2521123294436447
3.284,0.2432810560081082
3.288,0.24282374329850187
3.292,0.24189053836363814
3.296,0.20558930356151064
3.3,0.19009515734809215
3.304,0.1582961923996352
3.308,0.1594312744850984
3.312,0.14227916434649202
3.316,0.13694693337140007
3.32,0.11104544472421855
3.324,0.10458433067338627
3.328,0.09699344747125843
3.332,0.09909611744907672
3.336,0.08575759722931386
3.34,0.0736442246133067
3.344,0.05997039754983539
3.348,0.040936495347074116
3.352,0.04587087320550313
3.356,0.025004025660743175
3.36,0.025503957267296606
3.364,0.04085489641320805
3.368,0.024565848054763292
3.372,0.018123459026902215
3.376,0.016573071017816007
3.38,0.009679963608158494
3.384,-0.01295122975798273
3.388,-0.005711738727853378
3.392,0.011719978700974082
3.396,-0.004794186261731855
3.4,0.0024094580755074394
3.404,-0.00953827093959544
3.408,-0.005052146477519136
3.412,0.0016116377788647235
3.416,0.01051258733915139
3.42,0.012218138614296381
3.424,-0.006605153485271985
3.428,0.003627007836171172
3.432,-0.013833936171486049
3.436,0.0008776334608248237
3.44,0.00976553829964613
3.444,-0.000499368315418437
3.448,0.013282068097353836
3.452,0.008460212639943903
3.456,0.0024789962970954093
3.46,-0.0024498536983261383
3.464,-0.005309639383490207
3.468,-0.014555816786311068
3.472,-0.012934778452296253
3.476,0.009961096603255122
3.48,0.01514507631299301
3.484,-0.010804724464576027
3.488,0.000685741589969104
3.492,-0.015742093342561554
3.496,-0.009766045981706387
3.5,0.0025994990177119247
3.504,-0.005186161924055467
3.508,-0.019161393107459637
3.512,0.017189017636089918
3.516,-0.000491194734441751
3.52,-0.011043810100239687
3.524,0.001280658364863138
3.528,-0.0008081149742440026
3.532,0.004219385508212972
3.536,-0.0033961801284669644
3.54,0.003147509940453574
3.544,0.009446398133722934
3.548,-0.013161866423297005
3.552,-0.006893779217875472
3.556,0.008465945477799613
3.56,-0.005378638431631674
3.564,-0.0005736908154186738
3.568,-0.004278129824409665
3.572,-0.0033531120826724888
3.576,-0.0037189878357349986
3.58,-0.010623085589562627
3.584,0.007697664791946179
3.588,0.015410475275183756
3.592,0.005428432496425394
3.596,0.02002974874258988
3.6,0.010128570638452794
3.604,0.01542567547451394
3.608,0.032489991966979305
3.612,0.041796597783101366
3.616,0.04722448340850278
3.62,0.06749771343627788
3.624,0.061483446346300916
3.628,0.08568919657187189
3.632,0.11285601422143077
3.636,0.12663644753609618
3.64,0.13767672560272673
3.644,0.14950623511936487
3.648,0.1425338122609107
3.652,0.13263397096491739
3.656,0.14673314004623744
3.66,0.1515520017466232
3.664,0.14560335543372627
3.668,0.12186283451755049
3.672,0.10479228389754035
3.676,0.09178830903476257
3.68,0.08052072561154505
3.684,0.05270854309433402
3.688,0.05299169326606606
3.692,0.046639466615350456
3.696,0.03466896651975977
3.7,0.02353067418458064
3.704,0.012795326174158806
3.708,0.008352057233998286
3.712,0.004263867270203946
3.716,0.01372388466382934
3.72,0.004407624833512974
3.724,0.034519778639713616
3.728,-0.001529168652632213
3.732,0.00547918029681328
3.736,-0.002442451412131077
3.74,-0.002959984275700655
3.744,0.015841466234535785
3.748,0.010096039052957681
3.752,-0.017481841681816785
3.756,-0.010191048571634463
3.76,-0.0013449565001023387
3.764,-0.005163035177540809
3.768,-0.01508354071114649
3.772,0.0011340842388549428
3.776,-0.018907110619456702
3.78,0.0007408819187403828
3.784,0.005433002229985293
3.788,0.00309231492475649
3.792,-0.015936454172703368
3.796,-0.016653256686454107
3.8,-0.05597887131715009
3.804,-0.08579594328305562
3.808,-0.13473277626171662
3.812,-0.1303879340171679
3.816,-0.13849098626009718
3.82,-0.08684381003125266
3.824,-0.026382889895370826
3.828,0.05164672528545181
3.832,0.17370954730436866
3.836,0.3262789540727606
3.84,0.51238546549221
3.844,0.7297152831421214
3.848,0.9012079205767582
3.852,0.974620691092692
3.856,0.9794445595722765
3.86,0.8759447430340832
3.864,0.6993775998301521
3.868,0.48552227483711674
3.872,0.27005603197878575
3.876,0.11215046118886361
3.88,-0.013123626176596447
3.884,-0.10284560026167316
3.888,-0.20304030205611331
3.892,-0.23011621771628873
3.896,-0.24723167817264913
3.9,-0.19797312865282496
3.904,-0.15499973729615119
3.908,-0.0906453563626745
3.912,-0.05727321808036834
3.916,-0.005731121164875218
3.92,-0.014297276602823063
3.924,-0.017473658330565592
3.928,-0.016312544949178238
3.932,-0.00018287319751458982
3.936,-0.003523863224981789
3.94,0.00790037235466483
3.944,-0.0005148780467712152
3.948,0.014023564338270213
3.952,-0.0008314928307706715
3.956,0.0141050524871228
3.96,-0.004677779907015482
3.964,-0.008952675670358365
3.968,-0.000654981254229023
3.972,-0.0019026199186184707
3.976,-0.0008586613172275014
3.98,0.018254819252562646
3.984,0.014507918036584466
3.988,0.022120184890801354
3.992,0.030105202228933772
3.996,0.012732858711680735
4.0,0.04073685367033548
4.004,0.029171516191194253
4.008,0.04242412517230236
4.012,0.03705846591900767
4.016,0.0711564503496452
4.02,0.057205920958834894
4.024,0.07243194492582716
4.028,0.0843218579855609
4.032,0.10626049904054509
4.036,0.11862785059364782
4.04,0.14164784224360571
4.044,0.14631855029208313
4.048,0.17125333563239528
4.052,0.1798641602089597
4.056,0.18116418952205596
4.06,0.19838061053388406
4.064,0.2342776666009403
4.068,0.2450431286334951
4.072,0.2538730397315998
4.076,0.2671078205086913
4.08,0.27298056099041773
4.084,0.28112419990274296
4.088,0.28621204453091426
4.092,0.30899736253455695
4.096,0.2918909826563645
4.1,0.3016183794030167
4.104,0.2829085671300825
4.108,0.284543228126944
4.112,0.31396620420275745
4.116,0.2971094081289405
4.12,0.28219641180970956
4.124,0.2768663838925669
4.128,0.2527902327088071
4.132,0.25108063793613195
4.136,0.22866413789297924
4.14,0.22727284028875944
4.144,0.22331623106264475
4.148,0.20685095519550986
4.152,0.20373864052576238
4.156,0.1762465911332143
4.16,0.1340730045854121
4.164,0.1641975172925758
4.168,0.12253960143323396
4.172,0.1193728120284128
4.176,0.10622935783329215
4.18,0.09581524191001423
4.184,0.08287750691397945
4.188,0.07287826256802409
4.192,0.049682454880302984
4.196,0.08029992390341881
4.2,0.05331547567938674
4.204,0.040503500446399554
4.208,0.05236179793794701
4.212,0.01791135684128172
4.216,0.03267938668765152
4.22,0.014430815737358361
4.224,0.02055776682955448
4.228,0.0178386155850719
4.232,-0.012259491429121529
4.236,-0.005302321534392928
4.24,0.023134741161293906
4.244,0.0033047162136416027
4.248,0.024655195891476925
4.252,0.016771921863775956
4.256,0.0006829397767560133
4.26,-0.0008310383853826109
4.264,0.018233686336208456
4.268,0.022379427159451983
4.272,-0.0018321319703956025
4.276,0.01616883764527304
4.28,0.010895718711670858
4.284,0.012473138638926325
4.288,0.0013458253380394572
4.292,-0.0064760311227893205
4.296,-0.01036075876092604
4.3,-0.01290858805671393
4.304,0.01920650030601709
4.308,0.00018005867503779048
4.312,-0.011397002894061337
4.316,0.010060521546922203
4.32,-0.0047629998226026374
4.324,-0.006491618239507813
4.328,0.020692807120683946
4.332,-0.013298183081464176
4.336,0.002356592307460708
4.34,-0.00590499563202571
4.344,-0.007502171274444697
4.348,-0.014636599678376083
4.352,0.0005971491336272027
4.356,-0.008738129681651741
4.36,0.005914365477775457
4.364,-0.00046968004911979497
4.368,-0.003125994820946321
4.372,-0.008685268553479057
4.376,0.01430719247665727
4.38,0.007356933883313953
4.384,-0.006813239121210039
4.388,-0.013591696764177824
4.392,-0.01887914673349425
4.396,0.011375129549228691
4.4,0.009095100982291235
4.404,0.010472671967615987
4.408,-0.00118882752306985
4.412,0.008087757981018441
4.416,0.010324918738568707
4.42,-0.0005989653767040806
4.424,-0.0034011963876248523
4.428,-0.009442787760118249
4.432,0.00481529329178792
4.436,0.0065262065165636405
4.44,-0.002529730807414711
4.444,-0.0004266571954118529
4.448,0.0016706437635275622
4.452,0.013764189602442118
4.456,-0.005059244934235768
4.46,0.0015087760411998177
4.464,0.006853078149019115
4.468,0.02285410286011681
4.472,0.03575678077914187
4.476,0.03188223776228414
4.48,0.06327001699286455
4.484,0.081838304425309
4.488,0.08540878389968712
4.492,0.1070146917925259
4.496,0.10089034429149982
4.5,0.11431000503235336
4.504,0.13964278562942153
4.508,0.14270634815937652
4.512,0.13945340487060065
4.516,0.16423801880460895
4.52,0.15076279960991365
4.524,0.14893671752995283
4.528,0.12610021817352082
4.532,0.13800657536167937
4.536,0.1062368428109185
4.54,0.10363619059825326
4.544,0.07312984329125777
4.548,0.06671692136593325
4.552,0.05778415089455604
4.556,0.06080507225249624
4.56,0.026760672997566067
4.564,0.02518980702676576
4.568,0.022704550055779905
4.572,-0.002291820787577845
4.576,-0.013580323972481323
4.58,-0.004480270768449473
4.584,0.013255143792688254
4.588,0.019448768784084053
4.592,-0.007809974647364478
4.596,-0.011307130394070488
4.6,0.015855318626901566
4.604,-0.005361978635248788
4.608,-0.003553938121378048
4.612,0.014680999031674108
4.616,0.012994792011623613
4.62,0.009365453358704924
4.624,-0.01710237792259028
4.628,-0.012580084887456803
4.632,0.01119726527463768
4.636,0.003123090886866487
4.64,-0.008034938306858353
4.644,-0.004438529328598548
4.648,0.007854645358373491
4.652,0.006184471151608879
4.656,-0.02169573339061344
4.66,-0.05073723102584268
4.664,-0.0785127119310809
4.668,-0.09790442581719351
4.672,-0.12562751586065385
4.676,-0.1437532424820787
4.68,-0.12988174082551662
4.684,-0.06459311629023917
4.688,0.0159751803632526
4.692,0.08862556085646195
4.696,0.23932255136577174
4.7,0.42971343008291146
4.704,0.6208308144270763
4.708,0.8092095237672263
4.712,0.9557497477819762
4.716,1.003208233297788
4.72,0.9254877916539949
4.724,0.7855019826906197
4.728,0.5885002292821871
4.732,0.37645463295545917
4.736,0.1944995241794045
4.74,0.04969694883430283
4.744,-0.074397788376326
4.748,-0.15106944165429534
4.752,-0.2332097057634528
4.756,-0.24440061734733232
4.76,-0.23029355492555134
4.764,-0.18349861530557374
4.768,-0.10310336937278397
4.772,-0.06710831699746445
4.776,-0.03817161754907499
4.78,-0.020329479121359205
4.784,-0.0007317228118912385
4.788,0.0074622468607705595
4.792,0.01308590315431421
4.796,-0.0008031277894230782
4.8,-0.0010522995650975686
4.804,0.002916784096273969
4.808,0.003748794296749872
4.812,-0.005055052004350647
4.816,0.018021799970985217
4.82,0.004525500639594888
4.824,0.010762886864360274
4.828,0.011016212377899877
4.832,0.012452780730988263
4.836,0.00034562913769245994
4.84,0.012676683561565856
4.844,0.038336068904725504
4.848,0.034677568112182075
4.852,0.024199570921715846
4.856,0.02338816173256172
4.86,0.00996611601144775
4.864,0.03297049235784649
4.868,0.043720385226715675
4.872,0.04869351120314776
4.876,0.057584191647257754
4.88,0.07533058272579884
4.884,0.06900292719998347
4.888,0.09247529481316773
4.892,0.10019867494644429
4.896,0.10478830903716861
4.9,0.14334552052345897
4.904,0.14766160413296497
4.908,0.14636473721971616
4.912,0.17377119998867185
4.916,0.16923711094215202
4.92,0.19101371302986325
4.924,0.22523084927572717
4.928,0.229362464995274
4.932,0.24182674564257894
4.936,0.2614162487920341
4.94,0.2690492948627011
4.944,0.27042830375852356
4.948,0.29118770885996553
4.952,0.2720929180620374
4.956,0.28775797242148854
4.96,0.2971024689394942
4.964,0.3053084371998891
4.968,0.29642662467656145
4.972,0.27977073958950155
4.976,0.2744299793804398
4.98,0.28726058646444225
4.984,0.27574135675395917
4.988,0.26244481106616646
4.992,0.2504075452762842
4.996,0.250946659838167
5.0,0.2500509658835447
5.004,0.21895275946925127
5.008,0.2107656723781559
5.012,0.17348487283656497
5.016,0.16109731148371156
5.02,0.1496364473268373
5.024,0.11418259061446902
5.028,0.09601732753886426
5.032,0.07249841787222147
5.036,0.06325979819159376
5.04,0.04814859645493057
5.044,0.02520076774382264
5.048,0.002776094823002173
5.052,-0.025694676634354305
5.056,-0.02608984813685638
5.06,-0.0415795748643782
5.064,-0.05052140266894128
5.068,-0.06413386351150144
5.072,-0.06123882139270134
5.076,-0.09487738579495955
5.08,-0.1139588958394091
5.084,-0.1193232641464477
5.088,-0.12338150155296906
5.092,-0.11488480682952051
5.096,-0.146903936374153
5.1,-0.15341526214959775
5.104,-0.14515166457257841
5.108,-0.14802368007795336
5.112,-0.17898828104511508
5.116,-0.18798508255851268
5.12,-0.1847201646482087
5.124,-0.17672113030596626
5.128,-0.18817636537154497
5.132,-0.20331688060017433
5.136,-0.19454346564651395
5.14,-0.206742080990164
5.144,-0.2150472849251873
5.148,-0.2360497413438285
5.152,-0.23350309985332762
5.156,-0.21208345682278051
5.16,-0.2408387140483013
5.164,-0.2528389688664595
5.168,-0.2528640526396084
5.172,-0.2535987732406331
5.176,-0.25168355734456904
5.18,-0.2600140702781354
5.184,-0.2786802291131352
5.188,-0.2648698577959382
5.192,-0.2750924665669473
5.196,-0.2933269598370642
5.2,-0.2957764768552653
5.204,-0.294089206847419
5.208,-0.2949326396119719
5.212,-0.32643224243300406
5.216,-0.3160886734452704
5.22,-0.322633143062945
5.224,-0.3335371124951612
5.228,-0.3390762166982642
5.232,-0.3282377328710126
5.236,-0.3388693117014324
5.24,-0.3285480381074008
5.244,-0.3606618577146265
5.248,-0.35887357770071243
5.252,-0.36232976653791626
5.256,-0.361502917136475
5.26,-0.36170585052181975
5.264,-0.3788778360698918
5.268,-0.39486159543346294
5.272,-0.39454330446218655
5.276,-0.3887609608243926
5.28,-0.3807331056694455
5.284,-0.40698864054245304
5.288,-0.40336099753525195
5.292,-0.38161796424331956
5.296,-0.39794064213445657
5.3,-0.3903630140915828
5.304,-0.3603043586552147
5.308,-0.3652152410241133
5.312,-0.3565926015158392
5.316,-0.33048988510238053
5.32,-0.34609070441847517
5.324,-0.3409546122613698
5.328,-0.3072475819689524
5.332,-0.3194893173502633
5.336,-0.31685410302929273
5.34,-0.33236587157438324
5.344,-0.33964263090292457
5.348,-0.3583162655954987
5.352,-0.3636042062282826
5.356,-0.3760388089313134
5.36,-0.40119167382477433
5.364,-0.4117481034512159
5.368,-0.434601137175505
5.372,-0.4696332730223443
5.376,-0.47714014066151555
5.38,-0.49508296040962674
5.384,-0.4962399037454069
5.388,-0.510643897849414
5.392,-0.5239210513597392
5.396,-0.5236427350709683
5.4,-0.5598926190263055
5.404,-0.5538215420646554
5.408,-0.5588291734135005
5.412,-0.5564613713669605
5.416,-0.5584006445637072
5.42,-0.5686182919537625
5.424,-0.5862379250140916
5.428,-0.5733671168430151
5.432,-0.580402749181374
5.436,-0.6005463897166841
5.44,-0.5929325224496633
5.444,-0.5903106923114957
5.448,-0.581550708253051
5.452,-0.6129712679547402
5.456,-0.598161460768214
5.46,-0.6208656091998216
5.464,-0.6271494054241411
5.468,-0.6319112297661884
5.472,-0.6217069669784784
5.476,-0.6398047555399312
5.48,-0.6662789809934432
5.484,-0.6907903145730004
5.488,-0.7339312223702923
5.492,-0.7690782072950233
5.496,-0.7928423953175694
5.5,-0.7935968889465541
5.504,-0.7312285182813018
5.508,-0.672352157877334
5.512,-0.5819750688469729
5.516,-0.48245916009572454
5.52,-0.3249085634053637
5.524,-0.13054428003765806
5.528,0.08318309420014858
5.532,0.23530138456176752
5.536,0.3117556193801674
5.54,0.2959204150149447
5.544,0.1597654299118375
5.548,-0.036625461248823266
5.552,-0.23134887588023928
5.556,-0.4311787938988542
5.56,-0.5883883751080176
5.564,-0.7476596054966826
5.568,-0.8373049664295762
5.572,-0.908617963375835
5.576,-0.965633433333759
5.58,-0.9640016961573482
5.584,-0.9108290480994411
5.588,-0.848401940379034
5.592,-0.811128214892954
5.596,-0.7664725250123046
5.6,-0.7446063558222362
5.604,-0.7485780068598653
5.608,-0.7187742778660302
5.612,-0.733151947275165
5.616,-0.7348081926872052
5.62,-0.7313636351327271
5.624,-0.7526727587314399
5.628,-0.7297387811206826
5.632,-0.7301478716879146
5.636,-0.7407884223479666
5.64,-0.7389072429380422
5.644,-0.7478898122352755
5.648,-0.7368239997576134
5.652,-0.7542023704218443
5.656,-0.7464567829014319
5.66,-0.7456155041030188
5.664,-0.7455740201529288
5.668,-0.7332839494648397
5.672,-0.7203135128969713
5.676,-0.7408891025643727
5.68,-0.7320002729939349
5.684,-0.7409046466440015
5.688,-0.7179508369272128
5.692,-0.7280039526381268
5.696,-0.6850712818180935
5.7,-0.726034097433801
5.704,-0.6797570441241442
5.708,-0.682330783016768
5.712,-0.6936079449320489
5.716,-0.6485089864455239
5.72,-0.6695468907280127
5.724,-0.6512951619334686
5.728,-0.6484476388063979
5.732,-0.6238500953779217
5.736,-0.6095445018717294
5.74,-0.587250111181383
5.744,-0.5577897784518915
5.748,-0.574215416159297
5.752,-0.584023910588283
5.756,-0.5381345784718191
5.76,-0.539163402635898
5.764,-0.5056356712100887
5.768,-0.5156316740050354
5.772,-0.5158153363541655
5.776,-0.5129086855406537
5.78,-0.4928350212324633
5.784,-0.49991361072151136
5.788,-0.48244135603853616
5.792,-0.501052409752839
5.796,-0.48847373131426314
5.8,-0.5218786248335647
5.804,-0.53260947188651
5.808,-0.5156398410352143
5.812,-0.5386936665433327
5.816,-0.5480363028155801
5.82,-0.5679150753578975
5.824,-0.5818770706404033
5.828,-0.5785205022922004
5.832,-0.5993361062118159
5.836,-0.6242293654895783
5.84,-0.6202143439489421
5.844,-0.6306929011767677
5.848,-0.6575166313279506
5.852,-0.6599004978065292
5.856,-0.6928480206065317
5.86,-0.6892464768007573
5.864,-0.7048012631237124
5.868,-0.7248888164352449
5.872,-0.7061149712265977
5.876,-0.7330911592886533
5.88,-0.749201972755813
5.884,-0.7500895628067054
5.888,-0.7651203526341844
5.892,-0.7733140511607506
5.896,-0.7707921237586866
5.9,-0.7739506489346524
5.904,-0.7813494203595286
5.908,-0.763366518387804
5.912,-0.7855584715028752
5.916,-0.7887551007957879
5.92,-0.7923847636535506
5.924,-0.7940552157367937
5.928,-0.7713284622390183
5.932,-0.7790912920601889
5.936,-0.7745804462757458
5.94,-0.7708853380755137
5.944,-0.7837929659563062
5.948,-0.7649591398198837
5.952,-0.7850254225138242
5.956,-0.788661265882492
5.96,-0.7728039135290059
5.964,-0.7738326977802886
5.968,-0.7724998106420877
5.972,-0.7623496759600891
5.976,-0.7699439227221481
5.98,-0.766314298867673
5.984,-0.7542280049491527
5.988,-0.763480669915178
5.992,-0.7594755795480383
5.996,-0.77681560587418
6.0,-0.7236186880271697
6.004,-0.7748432525075611
6.008,-0.7624067548710793
6.012,-0.7607426426064542
6.016,-0.7319558806303675
6.02,-0.7569871894530268
6.024,-0.7444640822360715
6.028,-0.7523690821864153
6.032,-0.754958095028172
6.036,-0.73662666542093
6.04,-0.747250581506545
6.044,-0.7356735094491293
6.048,-0.7291289346286235
6.052,-0.7139328770811284
6.056,-0.7431849928281433
6.06,-0.729612571526597
6.064,-0.7266787060655335
6.068,-0.7229926978475623
6.072,-0.6947100743969481
6.076,-0.7194850762194547
6.08,-0.7402676289594265
6.084,-0.7143099720981655
6.088,-0.7107230121338391
6.092,-0.7091054114602814
6.096,-0.7109669015986172
6.1,-0.7139885753311935
6.104,-0.6760542087880467
6.108,-0.6911715292092281
6.112,-0.6927466908510364
6.116,-0.6656890392780027
6.12,-0.6913400943132468
6.124,-0.671707492750663
6.128,-0.6845003568067763
6.132,-0.6577649827790433
6.136,-0.6686378517798717
6.14,-0.643149640849647
6.144,-0.6172490357122491
6.148,-0.6230421530509586
6.152,-0.6313842719355096
6.156,-0.5930377466165107
6.16,-0.5713248572918026
6.164,-0.5491696369131647
6.168,-0.5254875060395124
6.172,-0.5078068114920131
6.176,-0.5088133452789829
6.18,-0.5009716540711242
6.184,-0.49553158277884524
6.188,-0.48328043400447396
6.192,-0.4704227544075472
6.196,-0.4896739367374475
6.2,-0.48978964085002386
6.204,-0.4819742884102165
6.208,-0.503126986255585
6.212,-0.5031847565630767
6.216,-0.5255871409407175
6.22,-0.5247277305151787
6.224,-0.5444954062937184
6.228,-0.5635557439021268
6.232,-0.5410810494583285
6.236,-0.5619685680034302
6.24,-0.5601804989163098
6.244,-0.5657517480729357
6.248,-0.5532060489136064
6.252,-0.5540201092243984
6.256,-0.5497455862171019
6.26,-0.5577932141627487
6.264,-0.5494154360630779
6.268,-0.5409963629645838
6.272,-0.5256981760120589
6.276,-0.5338820377081646
6.28,-0.5426471739453953
6.284,-0.5255081362791748
6.288,-0.5253424548379036
6.292,-0.5391331235913908
6.296,-0.5330084887734833
6.3,-0.510597354238486
6.304,-0.5051017126346218
6.308,-0.5035671917517796
6.312,-0.48719092431260763
6.316,-0.5011428525862701
6.32,-0.5025182551926056
6.324,-0.49657598628158545
6.328,-0.4997383913240722
6.332,-0.5084650381858361
6.336,-0.540264881514456
6.34,-0.5842861407032811
6.344,-0.6150124289063393
6.348,-0.5973238006905591
6.352,-0.592491515171026
6.356,-0.5552952122077628
6.36,-0.4566021208920599
6.364,-0.3480668774143033
6.368,-0.23221639524354912
6.372,-0.05804652504924196
6.376,0.14401681190400345
6.38,0.3242691272527723
6.384,0.5226018789594453
6.388,0.608379268588445
6.392,0.5890665598547957
6.396,0.4427297461312525
6.4,0.25069281313986647
6.404,0.0746591804887966
6.408,-0.11672562618240745
6.412,-0.26428636103157577
6.416,-0.40161755269980365
6.42,-0.48970591322744916
6.424,-0.5718357328709321
6.428,-0.5919790950586629
6.432,-0.5824664518922305
6.436,-0.5071424950305341
6.44,-0.4606180480325741
6.444,-0.42714263708945577
6.448,-0.36053423005105045
6.452,-0.3282841011797777
6.456,-0.3200951266318688
6.46,-0.3163292375918655
6.464,-0.2914938509230392
6.468,-0.30149007251470333
6.472,-0.2801329209941913
6.476,-0.29034347484309153
6.48,-0.2791292315816745
6.484,-0.258008986505713
6.488,-0.25630766080672684
6.492,-0.254334869314604
6.496,-0.24818695917067166
6.5,-0.23997462471283698
6.504,-0.24150118347019545
6.508,-0.24112751785201605
6.512,-0.2122646195349555
6.516,-0.19422054183616513
6.52,-0.19455933579261203
6.524,-0.1885986352921993
6.528,-0.1931657962895992
6.532,-0.16159419095826077
6.536,-0.15412871020867286
6.54,-0.13915986986712453
6.544,-0.12344033333614633
6.548,-0.10410257931111386
6.552,-0.11643648543266899
6.556,-0.10264047921142685
6.56,-0.0718733047721704
6.564,-0.06535313082826272
6.568,-0.0490735799259253
6.572,-0.007187803767909118
6.576,-0.010125863404526841
6.58,0.019720092520228272
6.584,0.023759624368447793
6.588,0.06116841162738369
6.592,0.09287671124926103
6.596,0.11354616036259267
6.6,0.13188603761322215
6.604,0.14011816574626546
6.608,0.17071594216391117
6.612,0.18162540117786058
6.616,0.18948362704271593
6.62,0.21287784946713162
6.624,0.23157868762620537
6.628,0.22143805102373032
6.632,0.2343242457164191
6.636,0.25184558989570277
6.64,0.2475126937438161
6.644,0.25190531593712423
6.648,0.2627099876186651
6.652,0.2776647644090165
6.656,0.27658170947256716
6.66,0.2675708023118941
6.664,0.2622319107973422
6.668,0.2761090726972419
6.672,0.24357557855691914
6.676,0.2442489614774967
6.68,0.2281620791398474
6.684,0.2129463992850341
6.688,0.22919813040611703
6.692,0.2057812775543132
6.696,0.20740215053987082
6.7,0.1899137897484461
6.704,0.19720724574284368
6.708,0.16770145380825954
6.712,0.1829130548629076
6.716,0.17456062258807598
6.72,0.14281666382368563
6.724,0.1515731350352245
6.728,0.1637779901915543
6.732,0.16761815093106125
6.736,0.15690509730053434
6.74,0.14509027066921157
6.744,0.1394389232616839
6.748,0.15556869228388712
6.752,0.1470823397321572
6.756,0.1495517960002614
6.76,0.1537375478478655
6.764,0.1678777461546596
6.768,0.18063893374138215
6.772,0.17673718341623224
6.776,0.17078698538411016
6.78,0.166205128200769
6.784,0.18661873273133164
6.788,0.20154426076820192
6.792,0.20004000353309323
6.796,0.19733435751327907
6.8,0.19573094163164662
6.804,0.2095260317048591
6.808,0.22314341743175625
6.812,0.21949808003761173
6.816,0.22175851639429772
6.82,0.22156757702146748
6.824,0.26000158458842926
6.828,0.23087788786209526
6.832,0.23563998665567235
6.836,0.2528024337596598
6.84,0.25482765645194083
6.844,0.2727597640131202
6.848,0.27876965591084907
6.852,0.2617171312256285
6.856,0.2719542141863135
6.86,0.27639238888901313
6.864,0.2986142585966214
6.868,0.3006598129112609
6.872,0.2982531504910208
6.876,0.3097073356842438
6.88,0.3018390896246403
6.884,0.31121719031085743
6.888,0.3111658343292491
6.892,0.3311263322274927
6.896,0.3365758146512211
6.9,0.3307849670615337
6.904,0.3502937263314418
6.908,0.36209092039221047
6.912,0.34664187226861093
6.916,0.3591057972990837
6.92,0.3729340105189903
6.924,0.3731875646143757
6.928,0.3650374745005478
6.932,0.37995276914453063
6.936,0.38538249833918264
6.94,0.3944261490299349
6.944,0.40122383909792014
6.948,0.4250484567655286
6.952,0.41488737981647733
6.956,0.4082845301137329
6.96,0.43600470898084226
6.964,0.4635547470343738
6.968,0.45693187965181487
6.972,0.46840601826476086
6.976,0.4855851356072318
6.98,0.5118564639075078
6.984,0.5215228046123944
6.988,0.528800238103549
6.992,0.556667663083565
6.996,0.581483465368293
7.0,0.6047130002710367
7.004,0.6084234198977639
7.008,0.6231431711674645
7.012,0.6348551635198495
7.016,0.6311150300230234
7.02,0.6386604804775724
7.024,0.6414492502013154
7.028,0.6191717204141087
7.032,0.6261493212908552
7.036,0.6028409509859399
7.04,0.5931408619766639
7.044,0.5875130300999029
7.048,0.598914353896966
7.052,0.5605058614896969
7.056,0.5669718558042619
7.06,0.5669679251112079
7.064,0.576164993562566
7.068,0.5827429305034711
7.072,0.5591286834093908
7.076,0.5699192761062216
7.08,0.5656227065793963
7.084,0.5682589442325611
7.088,0.5751806651613277
7.092,0.5601057563803492
7.096,0.5792141183368442
7.1,0.5880693946679522
7.104,0.5789095781884304
7.108,0.5960623204550336
7.112,0.5781931294674724
7.116,0.6003938109166904
7.12,0.6168405564022299
7.124,0.6051666648586236
7.128,0.6014712149280903
7.132,0.6008524263157959
7.136,0.6227485661494333
7.14,0.6315350424099393
7.144,0.624147035935653
7.148,0.6200945013069122
7.152,0.6003730039335021
7.156,0.6074787218078375
7.16,0.575601553970825
7.164,0.5448704961514046
7.168,0.537653283234913
7.172,0.4884038090538599
7.176,0.49989184689404853
7.18,0.5577045845665717
7.184,0.6171591328103241
7.188,0.7077574905022535
7.192,0.838994885560628
7.196,0.9998986851384162
7.2,1.1829170456080549
7.204,1.393262084006658
7.208,1.575764568026171
7.212,1.676705212303597
7.216,1.6742559220064044
7.22,1.5551427222831948
7.224,1.385706978390986
7.228,1.1883127418096564
7.232,0.9887531057918553
7.236,0.8270830586568433
7.24,0.6958021816102266
7.244,0.5872257676553465
7.248,0.5061473885826888
7.252,0.4708641715816201
7.256,0.48003298050817395
7.26,0.5064815370816225
7.264,0.5747815514164486
7.268,0.6332408706453798
7.272,0.6985021941694654
7.276,0.7165000871009433
7.28,0.7317718021939232
7.284,0.7417478579350363
7.288,0.731445127119305
7.292,0.7537270065098712
7.296,0.7442223836285877
7.3,0.7447813360386796
7.304,0.735701671950216
7.308,0.746515383211362
7.312,0.7356428665307352
7.316,0.7537068064968471
7.32,0.7534587009912375
7.324,0.7584530584758623
7.328,0.7520130652034595
7.332,0.7766094931547471
7.336,0.7795120146502157
7.34,0.7948613108241255
7.344,0.799372818410941
7.348,0.7895888997831237
7.352,0.8040609239544938
7.356,0.8028281927531451
7.36,0.8029727504303179
7.364,0.812189815797455
7.368,0.8298230319954587
7.372,0.8735499116762382
7.376,0.8543753319936191
7.38,0.8560172436544845
7.384,0.870044138802881
7.388,0.8823922500707191
7.392,0.889920217241104
7.396,0.9122460684352867
7.4,0.9175778804171661
7.404,0.9239529309753012
7.408,0.9541738233382981
7.412,0.9710015303820698
7.416,0.9789119760057505
7.42,0.9988343051652426
7.424,1.0203544656753747
7.428,1.024673513273092
7.432,1.0343925154047249
7.436,1.044455909060891
7.44,1.060511544868324
7.444,1.0885239040395445
7.448,1.0797723279710467
7.452,1.092240512747435
7.456,1.0904824530414798
7.46,1.0928110922563814
7.464,1.089359832338681
7.468,1.09843285391183
7.472,1.0895955087061955
7.476,1.1029554531985624
7.48,1.082803760619791
7.484,1.0754236681708156
7.488,1.0645377607364765
7.492,1.0591743720445483
7.496,1.0583414944664058
7.5,1.0200510905388889
7.504,1.0195011470386248
7.508,0.9867782632053187
7.512,1.000116894093717
7.516,0.9720958292629048
7.52,0.9435788348270693
7.524,0.9313473475366352
7.528,0.9381960378062226
7.532,0.8998650863219847
7.536,0.9063556635025805
7.54,0.8870380133226042
7.544,0.8778759152761848
7.548,0.8623731810459698
7.552,0.8496785737336776
7.556,0.8452369331569879
7.56,0.8475300975630946
7.564,0.8313515770906668
7.568,0.8316871656509293
7.572,0.8189346140264253
7.576,0.8219848806819362
7.58,0.8151153024205925
7.584,0.8011730894187987
7.588,0.7931216646112086
7.592,0.8087007592202954
7.596,0.7878499732104646
7.6,0.7981344458373233
7.604,0.7908363317805325
7.608,0.7835066621332495
7.612,0.7902181636241057
7.616,0.7975282948109387
7.62,0.7881401268864917
7.624,0.7812964871218067
7.628,0.7943973747338577
7.632,0.7596599582218698
7.636,0.7635254538831179
7.64,0.7682591442730412
7.644,0.7853530693407831
7.648,0.778835293766132
7.652,0.7504746084412826
7.656,0.761481794012739
7.66,0.7507881484780301
7.664,0.7617718539290819
7.668,0.769310815149182
7.672,0.7681291193432492
7.676,0.7590950281579993
7.68,0.7501680961463137
7.684,0.7514277312964507
7.688,0.7571373522380701
7.692,0.7716593351867687
7.696,0.7341756614377756
7.7,0.75971391380481
7.704,0.7440230443604086
7.708,0.7475003333791624
7.712,0.7388230421880975
7.716,0.7486452122989296
7.72,0.7354903718385744
7.724,0.7232547183689328
7.728,0.7317508902728496
7.732,0.7359837323241415
7.736,0.7221434385380973
7.74,0.6987852941823542
7.744,0.7157217292198237
7.748,0.7151578542322627
7.752,0.710997692131972
7.756,0.7037286599831106
7.76,0.7191228974954338
7.764,0.6793551391056896
7.768,0.7012156261108081
7.772,0.6985710165470813
7.776,0.715717910507146
7.78,0.692022514543169
7.784,0.6942197254757952
7.788,0.6889174241613484
7.792,0.6869633265962987
7.796,0.7026223230571216
7.8,0.6736758146732117
7.804,0.6789696693532512
7.808,0.6953081444463469
7.812,0.6939357492963303
7.816,0.6937544712124095
7.82,0.7027647565036963
7.824,0.7210691972561907
7.828,0.726565063531268
7.832,0.7252639537476155
7.836,0.745745258086858
7.84,0.7533976303365274
7.844,0.7678591667502881
7.848,0.7671053070497408
7.852,0.7625477901454674
7.856,0.7822411933339339
7.86,0.7781165314246828
7.864,0.7800558509814601
7.868,0.7423935552681957
7.872,0.7413661390936125
7.876,0.7238231359608398
7.88,0.7045686103954725
7.884,0.6747074660279682
7.888,0.6610122736983977
7.892,0.6565792832287976
7.896,0.6322280775887306
7.9,0.6137987400568569
7.904,0.622850693068268
7.908,0.6204265582395587
7.912,0.5858242188374339
7.916,0.5624444688912322
7.92,0.5736690278788372
7.924,0.5420240459812856
7.928,0.5432684602960454
7.932,0.5553304285368298
7.936,0.5321561150646321
7.94,0.5380860051619907
7.944,0.5214244706757852
7.948,0.5321331471204379
7.952,0.5381624326824272
7.956,0.5161802286570756
7.96,0.5174929058621234
7.964,0.5048945243677737
7.968,0.5009411518007381
7.972,0.4954059158193791
7.976,0.5068632838011022
7.98,0.4800768696746508
7.984,0.48587567118376235
7.988,0.4875862261548718
7.992,0.4850304193368281
7.996,0.4686574640775689
8.0,0.44446681621950496
8.004,0.4104016113359844
8.008,0.3871729761697228
8.012,0.32922738803434826
8.016,0.29990970094005776
8.02,0.3150904381807961
8.024,0.32671635450590497
8.028,0.3762017395469825
8.032,0.4533021077978491
8.036,0.5507510417976158
8.04,0.677972299663663
8.044,0.8726244057664148
8.048,1.068346107425138
8.052,1.2421614882461127
8.056,1.359147514460179
8.06,1.3895266557870303
8.064,1.2891196057859573
8.068,1.1312416002872245
8.072,0.9211939766457802
8.076,0.7169677447379517
8.08,0.5437645427402403
8.084,0.39902174400952933
8.088,0.26519281645734105
8.092,0.18586230673757898
8.096,0.11280673025388166
8.1,0.11250819215197569
8.104,0.11047800582899411
8.108,0.14831697693136675
8.112,0.22638926256305958
8.116,0.2649307051355909
8.12,0.298244717234855
8.124,0.30018694401974655
8.128,0.3221468446187704
8.132,0.2940006568367606
8.136,0.3017199014114441
8.14,0.280817654304062
8.144,0.28569588375908794
8.148,0.28229462630478386
8.152,0.2786553161251691
8.156,0.2730156102858906
8.16,0.22794218681486908
8.164,0.25484475278208396
8.168,0.24520150715260694
8.172,0.2428323664266576
8.176,0.2397160832431932
8.18,0.24859104778073693
8.184,0.23748597656288026
8.188,0.2274603583711812
8.192,0.2154160623400534
8.196,0.24353765233316307
8.2,0.22044507023171056
8.204,0.22498116529831597
8.208,0.24775827802138822
8.212,0.22100831766451584
8.216,0.22609012731254546
8.22,0.2336330420968011
8.224,0.2185593443989108
8.228,0.22155296496359012
8.232,0.23893555989922086
8.236,0.24505564563171195
8.24,0.2573788381936881
8.244,0.2534259950593887
8.248,0.27527247121382814
8.252,0.25752602377981304
8.256,0.2868395081846418
8.26,0.29971725940770066
8.264,0.3079148230969721
8.268,0.3112634849467294
8.272,0.31408921869642614
8.276,0.3259053099183783
8.28,0.3464149315012527
8.284,0.33324759069586085
8.288,0.35291304759210274
8.292,0.35694095599823816
8.296,0.3290394009092299
8.3,0.34421307274075
8.304,0.33298388736119194
8.308,0.3231179604255389
8.312,0.3395134751519008
8.316,0.3278753752707227
8.32,0.31546439119659525
8.324,0.28988256701812376
8.328,0.28908372615644884
8.332,0.258592304891847
8.336,0.25583064386029813
8.34,0.2306332152170682
8.344,0.2289773587363443
8.348,0.19529759303376973
8.352,0.18115157414408634
8.356,0.16074253623747578
8.36,0.13708167481221334
8.364,0.11837445636186533
8.368,0.100064877218864
8.372,0.06814869991308034
8.376,0.061741558890629
8.38,0.04757649048113202
8.384,0.024852710863507932
8.388,6.167253026798103e-05
8.392,-0.011100086842080359
8.396,-0.032075554590525544
8.4,-0.04435846545244306
8.404,-0.06892944717743128
8.408,-0.05630468728120837
8.412,-0.06300872126231116
8.416,-0.1009097257333555
8.42,-0.09681373776619304
8.424,-0.1002539975268914
8.428,-0.13397477060722088
8.432,-0.155014295492806
8.436,-0.12681537561149311
8.44,-0.15021628326424413
8.444,-0.16306535431652028
8.448,-0.16483016128651312
8.452,-0.17614715340284373
8.456,-0.14977409859134544
8.46,-0.19138312056905846
8.464,-0.18933656703724455
8.468,-0.1860748698957915
8.472,-0.19238784325375438
8.476,-0.2004643715226308
8.48,-0.2217574127221466
8.484,-0.22502643465436764
8.488,-0.25119493007764193
8.492,-0.236089634787693
8.496,-0.24086826303183578
8.5,-0.23959414614655858
8.504,-0.2348398032694643
8.508,-0.25143691240147115
8.512,-0.2535738291708408
8.516,-0.2701623498171427
8.52,-0.2628308866547759
8.524,-0.2812286506976847
8.528,-0.2755807808337363
8.532,-0.2845700130934447
8.536,-0.29429754132998287
8.54,-0.31922366270868
8.544,-0.29845629698753007
8.548,-0.3111635684049814
8.552,-0.3134559683258372
8.556,-0.322864556112664
8.56,-0.3266401585288926
8.564,-0.32397341002219265
8.568,-0.34718040802662303
8.572,-0.3432064661648303
8.576,-0.36107904924458684
8.58,-0.35293961456998635
8.584,-0.3615748204005126
8.588,-0.37575788287172673
8.592,-0.3738509185985875
8.596,-0.385792427517826
8.6,-0.38918094210715454
8.604,-0.3871254135574959
8.608,-0.3932376125540084
8.612,-0.42034777360797715
8.616,-0.4026288952213677
8.62,-0.4145208251184286
8.624,-0.4207365283770727
8.628,-0.43290604753165013
8.632,-0.4270378023818813
8.636,-0.4366313885052433
8.64,-0.42329229547726
8.644,-0.45787430565953335
8.648,-0.453986050572598
8.652,-0.4580998375926086
8.656,-0.4479257179857903
8.66,-0.44059491457538946
8.664,-0.44796881962357166
8.668,-0.4632559124426605
8.672,-0.45435054329348784
8.676,-0.4542047177757365
8.68,-0.4353637803417181
8.684,-0.4376434837623232
8.688,-0.4386319581982685
8.692,-0.40911195445826837
8.696,-0.3924986846181122
8.7,-0.39756019838393986
8.704,-0.3865094898250011
8.708,-0.3968388994250991
8.712,-0.39928657282721414
8.716,-0.3975175699862535
8.72,-0.3835364708743561
8.724,-0.39399518683504187
8.728,-0.3967919247185091
8.732,-0.41857451945432717
8.736,-0.4233695140411392
8.74,-0.4426674419494728
8.744,-0.47341630994712247
8.748,-0.49890914574128775
8.752,-0.5259461563042916
8.756,-0.5090938499839104
8.76,-0.5479218047322872
8.764,-0.5668071688508408
8.768,-0.562172416284222
8.772,-0.5883690360244965
8.776,-0.5808063844904219
8.78,-0.5928579050927444
8.784,-0.5866830438640974
8.788,-0.593215061809726
8.792,-0.5956329294365452
8.796,-0.6092615305393659
8.8,-0.624258168240536
8.804,-0.6301756128799327
8.808,-0.6290906634431088
8.812,-0.607706665254913
8.816,-0.6339248581371257
8.82,-0.6335428347402126
8.824,-0.6236349971019289
8.828,-0.63989784076006
8.832,-0.6535143276559692
8.836,-0.6422832278967987
8.84,-0.6574466789404888
8.844,-0.6540389995174754
8.848,-0.6562872780247528
8.852,-0.6728094685632885
8.856,-0.6768507534230986
8.86,-0.6812494460854467
8.864,-0.7321658964898216
8.868,-0.7499092700750952
8.872,-0.8067419611886447
8.876,-0.8084583927357707
8.88,-0.8369745961918429
8.884,-0.8056483356620521
8.888,-0.7325531952422165
8.892,-0.6519633780431298
8.896,-0.5490528566638775
8.9,-0.4208473452965056
8.904,-0.22564400070429058
8.908,-0.025371203661539332
8.912,0.14593629706491518
8.916,0.27345798475404126
8.92,0.26891182105668465
8.924,0.16802007646250472
8.928,-0.009364844243462955
8.932,-0.18367272442613292
8.936,-0.4065424498923391
8.94,-0.5783053141814829
8.944,-0.72451333759641
8.948,-0.8153343345491302
8.952,-0.9317496805837067
8.956,-0.9847084228084789
8.96,-0.9878210387857831
8.964,-0.956309922840721
8.968,-0.8964664656334702
8.972,-0.8534506700996747
8.976,-0.7870574164947366
8.98,-0.7820642453218831
8.984,-0.7724114587551631
8.988,-0.7688487313582758
8.992,-0.7650838545307221
8.996,-0.7700815007729087
9.0,-0.7523535944035731
9.004,-0.7713626450240003
9.008,-0.764076592408408
9.012,-0.7742962819965893
9.016,-0.7768287759155698
9.02,-0.7549058850661876
9.024,-0.7506038299676094
9.028,-0.7543406497114308
9.032,-0.7818430866935779
9.036,-0.7802116775361507
9.04,-0.7464680643650022
9.044,-0.7677204767924567
9.048,-0.7773557962867811
9.052,-0.7506654276261155
9.056,-0.7580858093576156
9.06,-0.7496712471637935
9.064,-0.7736309279279995
9.068,-0.7496280301272338
9.072,-0.731171915597814
9.076,-0.7405016681472525
9.08,-0.7143020613616431
9.084,-0.7314749786522154
9.088,-0.7101907035278523
9.092,-0.6824936232371532
9.096,-0.6994877465028267
9.1,-0.6735181441039817
9.104,-0.6579343918528209
9.108,-0.6498264777122054
9.112,-0.6397251226795312
9.116,-0.6321486711587476
9.12,-0.6074248242137397
9.124,-0.5964496832165884
9.128,-0.5960443613345918
9.132,-0.5573733179144557
9.136,-0.5648057444051688
9.14,-0.5579949886368267
9.144,-0.5390920270824362
9.148,-0.5325541003229394
9.152,-0.5181232742555419
9.156,-0.5214527869019766
9.16,-0.4997332667599231
9.164,-0.48737714073874766
9.168,-0.49895221466370615
9.172,-0.5151481312291286
9.176,-0.5123890708245278
9.18,-0.5054026384532548
9.184,-0.533365668500306
9.188,-0.5337099813269557
9.192,-0.5470034469993821
9.196,-0.5398115728285124
9.2,-0.530884869165277
9.204,-0.5775593963366122
9.208,-0.5699220710084663
9.212,-0.5973417191769869
9.216,-0.6187959120412434
9.22,-0.6039177563810765
9.224,-0.6118115245664306
9.228,-0.6428568454038581
9.232,-0.6564779212301043
9.236,-0.6720384169227169
9.24,-0.6860229401284638
9.244,-0.69225369029253
9.248,-0.6991777144726212
9.252,-0.698717549430975
9.256,-0.7290951745041506
9.26,-0.7302109676169646
9.264,-0.7390976191902054
9.268,-0.7338366926461921
9.272,-0.7251124024269192
9.276,-0.7427794957701459
9.28,-0.7489013031256357
9.284,-0.7506450383006129
9.288,-0.7492679876650296
9.292,-0.7394520199160112
9.296,-0.781597004715106
9.3,-0.7594407161516993
9.304,-0.7915406576985061
9.308,-0.7561532554762509
9.312,-0.7597849366232228
9.316,-0.7701221656149937
9.32,-0.7904783352357398
9.324,-0.7628429809488008
9.328,-0.7592158063474166
9.332,-0.7606682686806248
9.336,-0.7647123316870521
9.34,-0.7658117262345755
9.344,-0.7556066751445085
9.348,-0.7612635965019363
9.352,-0.7432286090241695
9.356,-0.7501141406791807
9.36,-0.7645144276727908
9.364,-0.7433817517497874
9.368,-0.7388322568962311
9.372,-0.7245674348350769
9.376,-0.7291893604733597
9.38,-0.7451334177193272
9.384,-0.7195179072174968
9.388,-0.7452213012667576
9.392,-0.7286202319778083
9.396,-0.7188590160888636
9.4,-0.709268007309781
9.404,-0.7023791479710265
9.408,-0.7058923920942151
9.412,-0.7173357436338693
9.416,-0.7074613975027262
9.42,-0.7082609454673097
9.424,-0.7148039145774874
9.428,-0.7060267083236166
9.432,-0.6840067417823096
9.436,-0.6925865197567282
9.44,-0.6754578934522998
9.444,-0.7038062213381971
9.448,-0.6936303327940683
9.452,-0.6823650908038325
9.456,-0.6756152689943724
9.46,-0.6804730450675718
9.464,-0.6672114455117519
9.468,-0.6627111454990688
9.472,-0.6792918246777688
9.476,-0.6518008693544757
9.48,-0.6414563050051175
9.484,-0.6407850957801087
9.488,-0.6521983813770335
9.492,-0.6249536019251029
9.496,-0.6044535211797821
9.5,-0.602450640065037
9.504,-0.5680929829767596
9.508,-0.552369307960555
9.512,-0.5401762991414512
9.516,-0.5233795929815395
9.52,-0.504644133172771
9.524,-0.49145490818356086
9.528,-0.49171008666702953
9.532,-0.4738281043176764
9.536,-0.4631155140602763
9.54,-0.4477480564565005
9.544,-0.45673851425882517
9.548,-0.45387219748164387
9.552,-0.49015500747540475
9.556,-0.4889702939218018
9.56,-0.47492979631341825
9.564,-0.5135083958589024
9.568,-0.5235640805984784
9.572,-0.5274008328113253
9.576,-0.5117653826741504
9.58,-0.5442377012642428
9.584,-0.5357903502298786
9.588,-0.5396319307011685
9.592,-0.563531621148005
9.596,-0.5438165975194402
9.6,-0.5475482982622082
9.604,-0.5327643273111853
9.608,-0.519040261199399
9.612,-0.5362898790352402
9.616,-0.5323613081234945
9.62,-0.4995653079559892
9.624,-0.5275169559999134
9.628,-0.5293701267995594
9.632,-0.4976179416239508
9.636,-0.5072909687582629
9.64,-0.4992940508914795
9.644,-0.4751153150633043
9.648,-0.5067300533491629
9.652,-0.48990030724780836
9.656,-0.49555836567584693
9.66,-0.475207890001375
9.664,-0.4799235458723273
9.668,-0.4833689755337413
9.672,-0.46494866853007966
9.676,-0.4792714563115074
9.68,-0.5085241629550369
9.684,-0.5343286488538811
9.688,-0.5509869458429081
9.692,-0.593156643707965
9.696,-0.5775150414092889
9.7,-0.5419905353054848
9.704,-0.49609941361857346
9.708,-0.4303114045354538
9.712,-0.3146854229321479
9.716,-0.1886296667258256
9.72,0.004767788818471452
9.724,0.20649335981925115
9.728,0.40039001851097183
9.732,0.5667634736151519
9.736,0.5981970385799478
9.74,0.5551336351785708
9.744,0.4139496122615145
9.748,0.22672169723133168
9.752,0.04587116171160993
9.756,-0.13516288237356908
9.76,-0.28534350995806923
9.764,-0.401685587033542
9.768,-0.4934424073303262
9.772,-0.540149867210969
9.776,-0.5921561652592474
9.78,-0.5434467054714684
9.784,-0.5019015426676094
9.788,-0.42660336587507197
9.792,-0.36909563794748246
9.796,-0.3258677859309488
9.8,-0.2921452328250476
9.804,-0.30704922636208043
9.808,-0.27411996570976666
9.812,-0.2779051943605586
9.816,-0.2756945337884268
9.82,-0.24471465668550074
9.824,-0.2519595337460886
9.828,-0.25697645419870185
9.832,-0.23692652610270554
9.836,-0.24049880531321205
9.84,-0.2377202775060069
9.844,-0.2325875636548685
9.848,-0.21636159439997837
9.852,-0.21813071052346197
9.856,-0.2026815168759268
9.86,-0.18721948205990566
9.864,-0.1863960004544108
9.868,-0.15865019991061619
9.872,-0.16864322884253047
9.876,-0.14503393689784305
9.88,-0.13784346264452474
9.884,-0.12071560701214934
9.888,-0.10384190331342984
9.892,-0.12796197755415192
9.896,-0.09364276826049842
9.9,-0.08249988238062375
9.904,-0.06448994848577358
9.908,-0.05294977482243185
9.912,-0.03696124794785245
9.916,-0.02430449529821041
9.92,0.006578745335216782
9.924,0.03445797830039275
9.928,0.040174493293644004
9.932,0.06216019854390857
9.936,0.07897778295239416
9.94,0.09652895538597386
9.944,0.12443228179489588
9.948,0.15015027083452187
9.952,0.1786087323380416
9.956,0.17261277783691903
9.96,0.20170288814775253
9.964,0.23003847617392126
9.968,0.2213152504789247
9.972,0.2590560930586632
9.976,0.253579859431312
9.98,0.27486270113928685
9.984,0.2734734434491394
9.988,0.28623507930981784
9.992,0.30182052358962713
9.996,0.2867244148521659
10.0,0.2983100859875396
10.004,0.2898013128057977
10.008,0.27634290311920295
10.012,0.2784942541410052
10.016,0.27239628531962307
10.02,0.25386335392407766
10.024,0.2652594247576501
10.028,0.25933061462470464
10.032,0.25256045563465557
10.036,0.25022704480129837
10.04,0.2369601888884678
10.044,0.21305903676417964
10.048,0.20719162385970818
10.052,0.2119605272020756
10.056,0.20054147398861932
10.06,0.19022425870592125
10.064,0.1761720936544447
10.068,0.17493770247566726
10.072,0.18223691269738773
10.076,0.15391341472845382
10.08,0.1478784416784574
10.084,0.17689100295517338
10.088,0.16409208338750847
10.092,0.17433071076646806
10.096,0.18633041886703805
10.1,0.1619975318610952
10.104,0.15758625407789695
10.108,0.17420399628548014
10.112,0.1732802759128113
10.116,0.18345391678294426
10.12,0.19303305332300624
10.124,0.1951813245983581
10.128,0.19690929720515465
10.132,0.21178996451702814
10.136,0.2128688924946184
10.14,0.20946028494519156
10.144,0.22286903337540612
10.148,0.2064074263499571
10.152,0.23793125969766563
10.156,0.2330107205436973
10.16,0.22632646649479748
10.164,0.23974781549719582
10.168,0.2598963575396415
10.172,0.24746815442528
10.176,0.2648843993983685
10.18,0.2752039349457837
10.184,0.27229768425584255
10.188,0.26904014806343024
10.192,0.28267245861960105
10.196,0.27483321817508316
10.2,0.289644585490954
10.204,0.28904970206358377
10.208,0.305229473641839
10.212,0.2985669407734304
10.216,0.3176402852211011
10.22,0.33366548235371624
10.224,0.3398097373580654
10.228,0.3209028832998327
10.232,0.332192957839515
10.236,0.3528785778368439
10.24,0.3569021674345382
10.244,0.3492559859599446
10.248,0.35615855303841554
10.252,0.3675800763843913
10.256,0.3543492024559903
10.26,0.38414919669613473
10.264,0.3963593720877703
10.268,0.3888527940594383
10.272,0.38654456040540947
10.276,0.4238521228566746
10.28,0.4221329079983469
10.284,0.43867544994948887
10.288,0.4316199815245306
10.292,0.44657893793793446
10.296,0.4804502555580322
10.3,0.5045731287458282
10.304,0.5020514900379133
10.308,0.5318791247382936
10.312,0.536382017542761
10.316,0.5635938944524178
10.32,0.5845557912299446
10.324,0.6059090432755201
10.328,0.5905951630364653
10.332,0.6318016430732629
10.336,0.6199949225502066
10.34,0.6340389504616646
10.344,0.6241744110073023
10.348,0.6191282243223549
10.352,0.62232643483342
10.356,0.5847614439506723
10.36,0.5841319265772473
10.364,0.563527833411366
10.368,0.5640902061446293
10.372,0.5653980062080161
10.376,0.5641737424745925
10.38,0.5454533617561604
10.384,0.5352041230546246
10.388,0.5474021350220576
10.392,0.5387960291166339
10.396,0.5431917650287755
10.4,0.5581244235714915
10.404,0.5592859002018403
10.408,0.5662136991946466
10.412,0.5582282726337838
10.416,0.5756044771662527
10.42,0.5696841009087147
10.424,0.5707846408751184
10.428,0.5667483440370383
10.432,0.5609488217810017
10.436,0.5703077752190168
10.44,0.5921785526274921
10.444,0.584997350592988
10.448,0.5816319392530659
10.452,0.597839306540112
10.456,0.608613715426653
10.46,0.6132486624409782
10.464,0.6106916258301036
10.468,0.6089459752577444
10.472,0.5963972221754891
10.476,0.5908812128533534
10.48,0.5555740824518345
10.484,0.5246191506122019
10.488,0.5102769204313353
10.492,0.5016993013727052
10.496,0.51327608618994
10.5,0.5614567809694099
10.504,0.6370563178568317
10.508,0.7235056719022669
10.512,0.8922173127890618
10.516,1.0501662130390632
10.52,1.2692562805935768
10.524,1.461661661959206
10.528,1.6269365114436853
10.532,1.6794758713234823
10.536,1.6360005247378342
10.54,1.4804915300187222
10.544,1.2800583850554121
10.548,1.0926155258407209
10.552,0.8923967707325354
10.556,0.7591278755859481
10.56,0.6322248742295467
10.564,0.5407451430770012
10.568,0.49006639373771443
10.572,0.46427486615751645
10.576,0.4753413230111543
10.58,0.5305462642464629
10.584,0.5842852002831642
10.588,0.6693137440079266
10.592,0.687064397821614
10.596,0.7011434569757439
10.6,0.727847814629327
10.604,0.7377732539943664
10.608,0.7214665941890034
10.612,0.7180238361243395
10.616,0.722783642907715
10.62,0.731044915608203
10.624,0.7399999252979057
10.628,0.7271220509885814
10.632,0.7422005285909551
10.636,0.7474008755688315
10.64,0.7559862671551143
10.644,0.7623098319540278
10.648,0.76389972462983
10.652,0.7817814136276798
10.656,0.7791084611855013
10.66,0.775078985061173
10.664,0.7682863238933678
10.668,0.7768645696988872
10.672,0.775515014113295
10.676,0.7981272478870062
10.68,0.8073629538599746
10.684,0.8211459432176785
10.688,0.8238109065726187
10.692,0.8413839709663951
10.696,0.852101007352848
10.7,0.8423983456060201
10.704,0.8596224246910976
10.708,0.8775872224456577
10.712,0.8842520064790556
10.716,0.9031432330566956
10.72,0.923406747897942
10.724,0.9344178926839382
10.728,0.9512039580032552
10.732,0.9574649302561996
10.736,0.9876069179896205
10.74,1.0022945920858402
10.744,1.0053213255739886
10.748,1.0143534252945305
10.752,1.0530713322271579
10.756,1.0706705552328746
10.76,1.06669520632237
10.764,1.0704479574963526
10.768,1.0926403304441403
10.772,1.0932540142774334
10.776,1.090970484991334
10.78,1.1053662764870875
10.784,1.0882402638013535
10.788,1.088121357574388
10.792,1.0954354902481387
10.796,1.087858932276993
10.8,1.086258058207997
10.804,1.0833725061707176
10.808,1.0460134253399767
10.812,1.050751582255012
10.816,1.057118808969514
10.82,1.019016711714712
10.824,1.0040483437028795
10.828,0.9745489124901909
10.832,0.9834926010272079
10.836,0.9737441794397659
10.84,0.959311890793706
10.844,0.9290301435128558
10.848,0.9256144092751863
10.852,0.9147631919818409
10.856,0.9005564214415442
10.86,0.8772898980965944
10.864,0.8779802540174874
10.868,0.8588284143186874
10.872,0.8388316147217751
10.876,0.8557453941513424
10.88,0.842500092993986
10.884,0.8399405324814772
10.888,0.8223123732893716
10.892,0.8282229877177312
10.896,0.8270916210200766
10.9,0.829878974012778
10.904,0.8164450404283794
10.908,0.8085634953344183
10.912,0.7877122493708816
10.916,0.7975749852510907
10.92,0.7818270660637465
10.924,0.7855171348348483
10.928,0.8111060789942682
10.932,0.7793350301846476
10.936,0.7642766864681856
10.94,0.7940701001729789
10.944,0.7775172360078001
10.948,0.7902897339002297
10.952,0.7693042893107875
10.956,0.7751613685127764
10.96,0.789800599429665
10.964,0.7630388373150063
10.968,0.7729711469219805
10.972,0.7759622978984776
10.976,0.7642175692967539
10.98,0.7721611841402815
10.984,0.7681970283949642
10.988,0.7716499294726382
10.992,0.7829532704441785
10.996,0.7894715864761747
11.0,0.7655011314739546
11.004,0.7578716325532278
11.008,0.7614512697282446
11.012,0.7527445227621318
11.016,0.7371760645393205
11.02,0.7505248371226063
11.024,0.7597105835686674
11.028,0.7320984001162042
11.032,0.7347142322828557
11.036,0.7365127210427205
11.04,0.7437857074396714
11.044,0.7615203029297303
11.048,0.7273033071025574
11.052,0.7339130117746928
11.056,0.7306213959580796
11.06,0.7250723900268752
11.064,0.7250876938904204
11.068,0.7183560071993599
11.072,0.7478307763287639
11.076,0.7252545531001315
11.08,0.7105126340793404
11.084,0.724186089103054
11.088,0.712154034399923
11.092,0.7073653308152998
11.096,0.7021285144869418
11.1,0.6985789732186439
11.104,0.6859844596023331
11.108,0.6785372260829013
11.112,0.6960728589105252
11.116,0.687564952174748
11.12,0.6954495780097655
11.124,0.6750939663780173
11.128,0.6705425428289227
11.132,0.6871360752714308
11.136,0.6747412709519793
11.14,0.6852185006536522
11.144,0.6768155595166881
11.148,0.696154431881147
11.152,0.6871374913794928
11.156,0.6873766328224029
11.16,0.6966081490818501
11.164,0.6928713505830602
11.168,0.6877174078391415
11.172,0.7175838094578451
11.176,0.7440487380317421
11.18,0.7125968876157679
11.184,0.7505173435478337
11.188,0.7394263512787362
11.192,0.7613012483180377
11.196,0.7661565723637345
11.2,0.7731738950017569
11.204,0.7643533010475205
11.208,0.7687053423756469
11.212,0.7557799308184933
11.216,0.7282315132755218
11.22,0.7248626328525134
11.224,0.6929617836550372
11.228,0.6726973024524808
11.232,0.64701983226448
11.236,0.6544156173718099
11.24,0.6217321005260568
11.244,0.5854689347364996
11.248,0.6017124239283905
11.252,0.5802114964152234
11.256,0.571363926893074
11.26,0.5631620465723102
11.264,0.5544223862545512
11.268,0.5782584109840085
11.272,0.5614959889435808
11.276,0.5462598261213646
11.28,0.5364399895949091
11.284,0.5403140808673556
11.288,0.5266155020086312
11.292,0.5275794083400176
11.296,0.5202906380294996
11.3,0.5112964892723039
11.304,0.5147192795782687
11.308,0.49640463634298415
11.312,0.4964612452677196
11.316,0.48132705251954766
11.32,0.4776883723759192
11.324,0.45615757464465345
11.328,0.4808766918974118
11.332,0.4777041782103877
11.336,0.4732573604070991
11.34,0.43890430926562907
11.344,0.43406411702819625
11.348,0.3992041722722677
11.352,0.3675951006984179
11.356,0.3141932277422249
11.36,0.29003628826073036
11.364,0.2742933171960865
11.368,0.307687702768279
11.372,0.36718832366738635
11.376,0.4472232558483004
11.38,0.5370587358787037
11.384,0.6941938346205268
11.388,0.8824954247825949
11.392,1.093680442564576
11.396,1.2480697196568409
11.4,1.369898122562215
11.404,1.365756534749095
11.408,1.2674338706558483
11.412,1.0856942714856976
11.416,0.873507315420031
11.42,0.6759856057082592
11.424,0.5167262947266051
11.428,0.3552806135043617
11.432,0.23618725340096955
11.436,0.15571564755132694
11.44,0.09627793634171111
11.444,0.08091916298857682
11.448,0.10978967648746768
11.452,0.14704158249194865
11.456,0.20106762340891043
11.46,0.26049863506740467
11.464,0.27262641695389406
11.468,0.28942438358755557
11.472,0.2965398129111912
11.476,0.2895277638078986
11.48,0.2625861802563741
11.484,0.2698658105696416
11.488,0.2761045694434624
11.492,0.2656290336296016
11.496,0.25703008947501454
11.5,0.23369574009270755
11.504,0.2389655196017031
11.508,0.2410330871885144
11.512,0.2214943591353098
11.516,0.23934670668912392
11.52,0.22617802781224441
11.524,0.20383536601269003
11.528,0.21462864197565262
11.532,0.21453356906213517
11.536,0.213695784846402
11.54,0.22734166053853716
11.544,0.21769167544604984
11.548,0.19768050842064266
11.552,0.19658637666436654
11.556,0.20972430273018164
11.56,0.2153683486175899
11.564,0.22657429095274143
11.568,0.2373386957419633
11.572,0.24211575067012325
11.576,0.22490995442121176
11.58,0.2445272038031291
11.584,0.24601550375288667
11.588,0.23807693437220437
11.592,0.23787559271629352
11.596,0.26638322634539613
11.6,0.25844827221338745
11.604,0.27344626162925095
11.608,0.28359256100407015
11.612,0.30083031659093806
11.616,0.31916643510129383
11.62,0.3135098976923164
11.624,0.3141109762578127
11.628,0.30382436582224054
11.632,0.3328028545971658
11.636,0.3307422851614624
11.64,0.3255742475384936
11.644,0.3416002006000591
11.648,0.3150611703229785
11.652,0.3152542377184489
11.656,0.31286863396924314
11.66,0.30100972935519527
11.664,0.3015995208790529
11.668,0.2884248582144176
11.672,0.2803399802745018
11.676,0.2593946286465241
11.68,0.23642503145976707
11.684,0.21624254142824578
11.688,0.20531182223805503
11.692,0.179240169549327
11.696,0.16147716592527375
11.7,0.14564926941191328
11.704,0.12137168104664434
11.708,0.10257968571342205
11.712,0.07133771490117094
11.716,0.0728954485596156
11.72,0.0290130391660227
11.724,0.02579244525572047
11.728,-0.0014111751251616456
11.732,-0.002892110852047991
11.736,-0.021207593115979917
11.74,-0.04553857227673182
11.744,-0.04458265885787714
11.748,-0.0757652953754172
11.752,-0.07800989262594593
11.756,-0.10623413653146185
11.76,-0.10632064501241514
11.764,-0.13039737009027366
11.768,-0.13093865961597403
11.772,-0.14112287847912075
11.776,-0.14077037071374093
11.78,-0.1647385802654065
11.784,-0.13535464642468584
11.788,-0.18759910545850852
11.792,-0.17881934039583194
11.796,-0.18536551889198735
11.8,-0.18972036526090147
11.804,-0.2069114172503499
11.808,-0.20582512572943465
11.812,-0.22022865056953478
11.816,-0.20207320307670273
11.82,-0.2332748823077806
11.824,-0.23443853833674802
11.828,-0.24555530917596713
11.832,-0.25282875664266996
11.836,-0.2646908827871941
11.84,-0.24977051905737074
11.844,-0.26899377175421935
11.848,-0.27597944039605377
11.852,-0.28335359070037014
11.856,-0.27636644886479345
11.86,-0.2848584735154132
11.864,-0.29045568228833574
11.868,-0.30395415834908013
11.872,-0.297590538797818
11.876,-0.3141492046293165
11.88,-0.3123875987986505
11.884,-0.32003142633259307
11.888,-0.3410446390445736
11.892,-0.30937859854092675
11.896,-0.32940602682509834
11.9,-0.33881994238082846
11.904,-0.34269015750917653
11.908,-0.33097589032048585
11.912,-0.3455390853361014
11.916,-0.3588082357966471
11.92,-0.3747462889645337
11.924,-0.3785146853006005
11.928,-0.39636600938999295
11.932,-0.3873175851757855
11.936,-0.38229328136239193
11.94,-0.3878252708636241
11.944,-0.3932186073104867
11.948,-0.40971351520108723
11.952,-0.40417856820368037
11.956,-0.4065065032828166
11.96,-0.44197783493028625
11.964,-0.421480297674491
11.968,-0.4083223846222513
11.972,-0.43635877398949086
11.976,-0.4625571153044749
11.98,-0.44879137856710355
11.984,-0.46138180507542215
11.988,-0.45118482907462004
11.992,-0.45749287356415125
11.996,-0.4349403360617766
12.0,-0.22924335651595862
12.004,-0.3327214458442573
12.008,-0.5285100787240223
12.012,-0.33263180838010337
12.016,-0.3885886865778066
12.02,-0.7363408718925241
12.024,-0.4068916736224447
12.028,-0.6301902557151523
12.032,-0.2848130762784533
12.036,-0.4057610071705099
12.04,-0.20547806234911575
12.044,-0.4946196284524127
12.048,-0.6517186070971113
12.052,-0.5916487987743194
12.056,0.012301803897604935
12.06,0.17742544550587525
12.064,-0.01755564188359454
12.068,-0.7580282202991966
12.072,-0.7546213533032073
12.076,-0.6936941043397069
12.08,-0.3550681140101707
12.084,-0.09811775152234886
12.088,-0.3560497216806441
12.092,-0.5152950794641585
12.096,-0.7520855576072301
12.1,-0.6136806774787263
12.104,-0.5513463723975984
12.108,-0.39980474224431295
12.112,-0.6880656275275565
12.116,-0.5087748760859865
12.12,-0.5462101841127287
12.124,-0.5852439558035055
12.128,-0.6633619072736843
12.132,-0.5716953915806862
12.136,-0.6327107462070285
12.14,-0.782296867630742
12.144,-0.4540156500376338
12.148,-0.30816734720062394
12.152,-0.5844347172607948
12.156,-0.6302525412823766
12.16,-0.4716412317393538
12.164,-0.5870725336057755
12.168,-0.4124044094654498
12.172,-0.596611779609642
12.176,-0.5214750744881439
12.18,-0.29328999002053374
12.184,-0.40727297633697684
12.188,-0.7022502502903684
12.192,-0.46691334371108417
12.196,-0.9646229456909281
12.2,-0.8275424417842947
12.204,-0.637927283394466
12.208,-0.48758671596588826
12.212,-0.911194669341409
12.216,-0.7102742842228407
12.22,-0.6065304093236134
12.224,-0.48996180001076767
12.228,-0.5744216980706
12.232,-0.0392723406272614
12.236,-0.18903148494362276
12.24,0.4655095940781598
12.244,0.6060599665440404
12.248,0.1820646122311689
12.252,-0.06347281803554128
12.256,-0.011485175543274474
12.26,-0.3000687835358902
12.264,-0.4481555435524642
12.268,-0.5518585390592282
12.272,-0.8791432465813431
12.276,-0.45630300238491517
12.28,-1.0058354069125597
12.284,-0.7428722738870539
12.288,-1.1186431901192138
12.292,-0.8669813386724696
12.296,-0.7491527323659322
12.3,-0.7598838853030955
12.304,-0.7891782434295034
12.308,-0.8238243216744645
12.312,-0.7993374154373636
12.316,-0.8491607569890243
12.32,-0.6480385767149042
12.324,-0.35482102477396654
12.328,-0.6524699682822597
12.332,-0.5852970079231887
12.336,-0.49327353756746384
12.34,-0.8170550916643605
12.344,-1.0727575548105697
12.348,-0.7191653780591851
12.352,-0.557053410502159
12.356,-0.3368255045552481
12.36,-0.9208945012871583
12.364,-0.4910699313342256
12.368,-0.6784780446869535
12.372,-0.7994319789462426
12.376,-0.9434219005600286
12.38,-0.8396941118194394
12.384,-0.6185193800579291
12.388,-0.510172061992705
12.392,-1.2811406439592126
12.396,-0.6230151335224465
12.4,-0.8277810523769088
12.404,-0.817811766813537
12.408,-0.6322275139792938
12.412,-0.332304001651131
12.416,-0.8326756579515717
12.42,-0.7021578303736468
12.424,-1.0125271197976207
12.428,-0.6101276047427472
12.432,-0.8301798635166484
12.436,-0.3438638240397393
12.44,-0.582379448310588
12.444,-0.7107842219612408
12.448,-0.6893843610271636
12.452,-0.5669202245733577
12.456,-0.47249474836135064
12.46,-0.8479443515353249
12.464,-0.6433764840066337
12.468,-0.6005315228381501
12.472,-0.552691183104426
12.476,-0.3222666327526522
12.48,-0.858142882275359
12.484,-0.3816693686527458
12.488,-0.5106148878527415
12.492,-0.6894917378474529
12.496,-0.43737693916241627
12.5,-0.6940678025266803
12.504,-0.9711409705770733
12.508,-1.3142967625990734
12.512,-0.8624020633637505
12.516,-0.7560281424925432
12.52,-0.6186990251779584
12.524,-0.5624613446114473
12.528,-0.7531119725308992
12.532,-0.9892205453832508
12.536,-0.8057091337055402
12.54,-0.7923626646845452
12.544,-0.4251074207848541
12.548,-0.6721600740847289
12.552,-1.1358102141522475
12.556,-0.9149086647165199
12.56,-0.7120452968319888
12.564,-0.8523907183626025
12.568,-1.2188795124767156
12.572,-0.7534907521569215
12.576,-0.8443239293355794
12.58,-0.9562161862168088
12.584,-1.1092840831111221
12.588,-0.7401711949532266
12.592,-1.3114720164359155
12.596,-1.3075585478822889
12.6,-1.1376303498232263
12.604,-0.9576343749783363
12.608,-1.2690185546118176
12.612,-1.1252574449795654
12.616,-1.0884495850436973
12.62,-0.9404596434561256
12.624,-1.0936772958984031
12.628,-1.0992397528193196
12.632,-1.1959527391287528
12.636,-0.8041139869901315
12.64,-0.8943602380586022
12.644,-0.9164287482166575
12.648,-1.2076774605910239
12.652,-1.1341085595122467
12.656,-0.9172671629310164
12.66,-1.1596905977881153
12.664,-1.2364863626069362
12.668,-0.9679104552107962
12.672,-1.3094833805787411
12.676,-1.0802508651931035
12.68,-0.8803585218240995
12.684,-1.003737317451882
12.688,-1.2489097496450159
12.692,-0.9161410188702236
12.696,-1.1493786379842177
12.7,-0.8382577279010547
12.704,-0.9097753597783227
12.708,-1.0737014972857366
12.712,-1.1448564764021973
12.716,-1.1646625729872744
12.72,-0.47658195675138837
12.724,-1.4477934810859026
12.728,-1.3213161306305397
12.732,-0.7654164203035805
12.736,-0.7649236994022153
12.74,-0.8773684548008002
12.744,-1.3438284076330245
12.748,-0.8225499562698164
12.752,-1.125346334973527
12.756,-0.9351045220298952
12.76,-0.8331828458975165
12.764,-0.7874480868395232
12.768,-1.0123104289771887
12.772,-0.6109953892485732
12.776,-0.6805075364998492
12.78,-1.0456460758167574
12.784,-0.9300540920945158
12.788,-0.9878637332530251
12.792,-0.8129890690335666
12.796,-0.6661490654115807
12.8,-1.1470597864423917
12.804,-1.1601347596389926
12.808,-0.9177869438839719
12.812,-0.4330385972266059
12.816,-0.6624880506547761
12.82,-0.3725166564917035
12.824,-0.7124679161535193
12.828,-0.8067538300913508
12.832,-0.9590970842006633
12.836,-0.7573497621860765
12.84,-0.6824408040966276
12.844,-1.0232113805708298
12.848,-0.6804239880975592
12.852,-0.6661379858148376
12.856,-0.4397017283455689
12.86,-0.4233736066794713
12.864,-0.3249863266657477
12.868,-0.6593195595637893
12.872,-0.5412275384131731
12.876,-0.13536941965468358
12.88,-0.3344155094605865
12.884,-0.10840392400667836
12.888,-0.2829150905103055
12.892,-0.22028653890956995
12.896,-0.14267659696373813
12.9,-0.33909214054465986
12.904,-0.35735793345560674
12.908,-0.3473175129190636
12.912,-0.23748692570780305
12.916,-0.11137322178729447
12.92,-0.27410384521450815
12.924,0.0496095613080938
12.928,0.1784230647805325
12.932,-0.34661840601150373
12.936,0.07898503138996471
12.94,-0.1297832671929206
12.944,-0.04714320042204834
12.948,-0.12668456751459783
12.952,0.1939727958714093
12.956,0.029886256254609556
12.96,-0.10444313229661778
12.964,-0.1149686263583154
12.968,-0.25454003299458045
12.972,-0.0966348869143927
12.976,0.2868971905715955
12.98,0.2563888455784079
12.984,-0.0709541371586836
12.988,-0.14071432614843948
12.992,0.2704895441345738
12.996,0.18187240098207952
13.0,-0.2822455585283548
13.004,0.7204129042085317
13.008,0.15671834211008062
13.012,0.5126523624121042
13.016,0.18140024149270695
13.02,-0.06595414147617623
13.024,0.18351243045496934
13.028,-0.18569878072259582
13.032,0.0638638391689933
13.036,-0.11275607952956357
13.04,0.07223441114464912
13.044,0.21576732420671663
13.048,0.3047458084978249
13.052,0.05837867918292461
13.056,0.3668149072471944
13.06,0.25615631907820824
13.064,0.9900273561441978
13.068,1.126227352216116
13.072,1.024127685521316
13.076,1.5828071486297608
13.08,1.3806917871568085
13.084,1.1321056432190924
13.088,0.8701579778184557
13.092,0.6263620404399675
13.096,0.425916692785315
13.1,0.6633643301249565
13.104,0.3752039115374457
13.108,-0.03030550261063758
13.112,0.36022554983166766
13.116,0.08436486632522266
13.12,-0.09607509441441997
13.124,0.51919357932177
13.128,-0.03363725664155576
13.132,0.053857975059445895
13.136,0.26967581063253215
13.14,0.34538141494261576
13.144,0.1453436672917594
13.148,-0.15205299349747226
13.152,0.29035885245327253
13.156,0.058449253369809384
13.16,0.20032679363240816
13.164,0.08949622357322898
13.168,0.012821512526653978
13.172,0.16203902551179977
13.176,0.07807255771415797
13.18,0.036899699418061815
13.184,0.3659644528389422
13.188,-0.02452102388819799
13.192,0.1005146375413383
13.196,0.12547728001692804
13.2,-0.21757341254702411
13.204,-0.10648808572009394
13.208,0.10277777356478018
13.212,0.06666159984073747
13.216,-0.10371569949791667
13.22,0.08703010717866923
13.224,0.1116609268524413
13.228,0.16018761217556
13.232,0.1699878718750601
13.236,0.2505043891150776
13.24,0.01575457463024249
13.244,-0.28034673970212876
13.248,-0.0729500139782614
13.252,-0.28562095579615365
13.256,0.1296914481196807
13.26,0.2043566713010131
13.264,-0.0710374322885196
13.268,0.1731975519890549
13.272,0.14165131606049033
13.276,-0.047913662690618974
13.28,-0.0029363141492272787
13.284,0.0930052513502915
13.288,-0.39641826574115213
13.292,-0.08061889106095116
13.296,-0.030092252957989146
13.3,-0.442765472080535
13.304,0.20902836554632498
13.308,0.02755366763584252
13.312,0.03175970580429255
13.316,-0.13174534796846304
13.32,-0.4175799582181826
13.324,-0.5038663714775653
13.328,-0.28377978322998854
13.332,-0.15815382641876335
13.336,-0.21096901851401229
13.34,-0.011123476071033422
13.344,-0.45496688776021765
13.348,-0.4873300587068321
13.352,-0.4363576681275955
13.356,-0.6998302280784638
13.36,-0.19262767543262566
13.364,-0.5946259051047805
13.368,-0.5197269037444772
13.372,-0.44355560157950025
13.376,-0.7715436217895502
13.38,-0.6095687486569021
13.384,-0.6971461555708229
13.388,-0.5346215507962888
13.392,-0.7585295522575043
13.396,-1.371143042777063
13.4,-1.0106671623050114
13.404,-1.1336816824872236
13.408,-0.47228328495126026
13.412,-0.5945771702742499
13.416,-1.319363582331642
13.42,-1.1175135718907203
13.424,-1.2127028587292399
13.428,-0.9052153465982401
13.432,-1.1476060298611332
13.436,-1.02654214058894
13.44,-1.2435708384836353
13.444,-0.9003442293590052
13.448,-1.3255787165622799
13.452,-0.5042039999944529
13.456,-0.6880595759559708
13.46,-0.4903189527363331
13.464,-0.8934455180576648
13.468,-0.6843472206036547
13.472,-0.8195830302471268
13.476,-1.1910942137397602
13.48,-1.0576417252326553
13.484,-0.9186377455007932
13.488,-0.735178456598111
13.492,-0.9542796854462559
13.496,-0.8305453056464249
13.5,-1.0180907283141656
13.504,-1.0120850113084667
13.508,-1.2149645027974492
13.512,-0.8306505889906936
13.516,-0.9882524156860225
13.52,-1.1338203819437969
13.524,-0.9624486428477181
13.528,-0.7865018616146621
13.532,-0.6822911072108813
13.536,-0.8259150113965004
13.54,-0.5390566428147328
13.544,-0.4099955754363999
13.548,-0.7644445458797052
13.552,-0.4988864296576587
13.556,-0.7956674180273415
13.56,-0.8798859026794357
13.564,-0.7987344419264644
13.568,-0.7271324536067869
13.572,-0.6178304487010957
13.576,-0.10462437895518173
13.58,-0.5871990861462055
13.584,-0.496538748253158
13.588,-0.371213684812881
13.592,-0.6198503516007471
13.596,-0.2916530561335389
13.6,-0.16488478673566326
13.604,0.05356667803624576
13.608,0.05061071330821332
13.612,-0.09253866400017163
13.616,-0.15675403948914168
13.62,-0.09945127206843202
13.624,0.05181020647710721
13.628,-0.002975908617062817
13.632,0.0361550266360553
13.636,-0.08622674141966669
13.64,0.2677112937141095
13.644,0.2640604703320581
13.648,0.08606463669175346
13.652,0.6043176870948772
13.656,0.3863838874936741
13.66,0.11782009955012945
13.664,0.6678058386195359
13.668,0.3973084283759682
13.672,0.4921192125614107
13.676,0.612868248651049
13.68,0.8951224583578106
13.684,0.7665962784186119
13.688,0.9687217288543177
13.692,0.5991551075263257
13.696,0.7520928531062389
13.7,1.026806090707811
13.704,0.9400681153272747
13.708,1.091817363053727
13.712,1.3486983567352708
13.716,1.0635537169370712
13.72,1.119097952611157
13.724,1.326261603200507
13.728,0.9081979795807893
13.732,1.5648219916607946
13.736,1.434546348437405
13.74,1.460843904093971
13.744,1.3848244784712205
13.748,1.652370269060785
13.752,1.5187864253208818
13.756,1.8332635470696972
13.76,1.2700445531055777
13.764,1.6581403842381688
13.768,1.6958501690595462
13.772,1.8060223174033556
13.776,2.071194372372942
13.78,1.5498372877437403
13.784,1.5731413996694457
13.788,1.8376395284226783
13.792,1.5454737433393415
13.796,2.4142289947184543
13.8,2.188579753983422
13.804,2.1496118833530673
13.808,2.214115243154736
13.812,2.334672202109263
13.816,2.0052702747160764
13.82,2.0923715142827994
13.824,2.2233911608190753
13.828,2.1198434929984766
13.832,2.036502290354175
13.836,2.159709029624623
13.84,2.334133005422477
13.844,2.459064263017689
13.848,2.0483927286033197
13.852,2.2638639433913332
13.856,2.2616029394939217
13.86,1.9980942500923478
13.864,2.3209936915152314
13.868,2.2201773431735186
13.872,2.0986075553111165
13.876,2.2526932177561694
13.88,2.5502158265656756
13.884,2.7440238721890835
13.888,2.7798290698789665
13.892,3.2785491884644937
13.896,3.3349875455159452
13.9,3.385913242867897
13.904,3.2622700093280987
13.908,3.648975566651629
13.912,3.1714943502239263
13.916,3.2978269075140765
13.92,2.4272795967200596
13.924,2.627425158817533
13.928,2.266360965849033
13.932,2.326483216091361
13.936,1.9376867320327156
13.94,2.1351252380379835
13.944,2.168675028527028
13.948,1.9062627468859765
13.952,1.9906277519444875
13.956,2.099525782440052
13.96,2.088779075042601
13.964,2.379193574758591
13.968,1.9973114848374305
13.972,2.229242119297311
13.976,2.1554285543187532
13.98,1.740524082723873
13.984,2.044169228975903
13.988,1.9696546312489849
13.992,1.8523051088729825
13.996,2.2615031902064695
14.0,2.1292152247262077
14.004,1.6936290046563682
14.008,1.9116450705257075
14.012,1.8880306985208357
14.016,1.725842681943827
14.02,1.4283738896561422
14.024,1.4154923026523794
14.028,1.6605591836409692
14.032,1.6223313663446697
14.036,1.4150902903915221
14.04,1.6983337128556046
14.044,1.6634607527324927
14.048,1.6155170792244795
14.052,1.5671531519819957
14.056,1.2175471869490755
14.06,0.9143615250039964
14.064,1.0408083575041143
14.068,1.0549633165532142
14.072,0.919455869011289
14.076,0.9154313925560409
14.08,0.7123131963462005
14.084,1.0356341663067754
14.088,1.157881846411626
14.092,1.2613593593915193
14.096,0.7893429131742882
14.1,0.656377737211995
14.104,0.6593484374185383
14.108,0.8994956606834694
14.112,0.8410634981054791
14.116,0.48292353549735123
14.12,0.7214487282724149
14.124,0.4702101885821669
14.128,0.2176897542438867
14.132,0.31119634573051425
14.136,0.6274532374519495
14.14,0.3861345902046469
14.144,0.09310085495544629
14.148,0.32132593654137076
14.152,0.2206471795740237
14.156,-0.03445271905697833
14.16,-0.18362256076677563
14.164,-0.3095675918988692
14.168,-0.47176595036132274
14.172,-0.3357987787543133
14.176,-0.27943559545262686
14.18,-0.06527945893539866
14.184,-0.22151713863211553
14.188,-0.3919606030369711
14.192,-0.8724800350672854
14.196,-0.4718479694140101
14.2,-0.9314703032116525
14.204,-0.5010498850215881
14.208,-0.53108810825956
14.212,-0.7607023833223336
14.216,-0.6637736336026974
14.22,-0.6573616002492431
14.224,-0.9129752474188653
14.228,-0.9907882645584325
14.232,-1.2867510891291176
14.236,-1.1304643726656827
14.24,-1.305980488889999
14.244,-1.344731427365495
14.248,-1.3223001061687945
14.252,-1.6149072371697648
14.256,-1.0339087693955733
14.26,-1.2153737340686135
14.264,-1.0676457019356929
14.268,-1.1398445948914218
14.272,-1.2119882258112753
14.276,-1.1911641936309298
14.28,-1.335663198156553
14.284,-1.0980649427050686
14.288,-1.4780254357258449
14.292,-1.3930876326254693
14.296,-1.4407249488233547
14.3,-0.9899854901666216
14.304,-1.5091310519055452
14.308,-1.138412768452362
14.312,-1.660813443294853
14.316,-1.355877755844682
14.32,-1.4401324298941542
14.324,-1.5625302267415326
14.328,-1.4959639609020825
14.332,-1.2387157960000974
14.336,-1.3792910910746108
14.34,-1.507069249052515
14.344,-1.116354077808281
14.348,-1.2745839811494422
14.352,-1.1946115485381918
14.356,-0.9803461831221945
14.36,-0.8850106079265294
14.364,-1.6054390675748562
14.368,-1.1586148199797273
14.372,-1.4361666865528901
14.376,-0.5120343717553096
14.38,-1.0113955521318454
14.384,-0.7990524344197572
14.388,-1.0694807787559153
14.392,-0.9851778480122539
14.396,-0.6541513911651169
14.4,-0.7106850408193902
14.404,-0.4294249065326926
14.408,-0.8828648715363994
14.412,-0.7330552808551898
14.416,-0.535470090719597
14.42,-0.45198094905232433
14.424,-0.43591098395533
14.428,-0.7484800172128591
14.432,-0.6150459409810177
14.436,-0.2953245554690792
14.44,-0.6139477494681194
14.444,-0.40149345663385816
14.448,-0.15239409582189778
14.452,-0.2604909651192021
14.456,0.013575614004108116
14.46,-0.0010403431539132146
14.464,-0.04497628240036766
14.468,0.05371625382021483
14.472,0.5230486542940307
14.476,0.41767991251319453
14.48,0.49415524273284633
14.484,0.5089661889144392
14.488,0.4195029298761541
14.492,0.575309782892947
14.496,0.24862273989593509
14.5,0.6819691039874166
14.504,0.7195160324854633
14.508,1.0125727119818713
14.512,0.8482244501022655
14.516,1.1966941701899647
14.52,1.032219319522401
14.524,1.1640015314500054
14.528,1.1688805036835106
14.532,1.3790136343625434
14.536,1.5282892724833976
14.54,1.1410975526678215
14.544,1.7449308729327748
14.548,1.2901552676959982
14.552,1.4728995474187538
14.556,1.4691102872407673
14.56,1.9171896240439525
14.564,1.4846199052138012
14.568,1.8959065085035531
14.572,1.3637831973393078
14.576,2.029272003005326
14.58,1.8922533874432803
14.584,1.8870821037325198
14.588,1.89298777079909
14.592,2.0572817570536515
14.596,2.0652388342587287
14.6,1.8849280230279253
14.604,2.077388231812361
14.608,2.450208065132002
14.612,2.2555808165049216
14.616,2.2249610706309855
14.62,2.4201242837993098
14.624,2.560179444988773
14.628,2.6286269948914853
14.632,2.59159200263177
14.636,2.7984407453307156
14.64,2.581946709549799
14.644,2.5460122117963144
14.648,2.757732675516204
14.652,2.4236558199470197
14.656,2.4885280112995236
14.66,2.2912488355437617
14.664,3.029943332787315
14.668,3.152548063266207
14.672,2.8064336321579604
14.676,3.1314621522455752
14.68,3.26985841514651
14.684,3.369919868761931
14.688,3.7920279322874233
14.692,3.4732691694543893
14.696,3.824077718498314
14.7,3.430478248053775
14.704,3.5514681720674925
14.708,3.269852769208522
14.712,2.9794685276035437
14.716,3.0652712324099847
14.72,3.052115190497588
14.724,2.7048575499909204
14.728,2.5924119852029985
14.732,2.462307805011616
14.736,2.573348575625026
14.74,2.3993263263498816
14.744,2.33583963676784
14.748,2.7227207575269823
14.752,2.414889901223354
14.756,2.3506005429881114
14.76,2.750888325789476
14.764,2.2480208314924264
14.768,2.792578689952766
14.772,2.298929638056486
14.776,2.498878973212908
14.78,2.2304396338458066
14.784,2.4024875200720817
14.788,2.2369641241239124
14.792,2.113797993955703
14.796,1.9331823457648383
14.8,2.0958287276924046
14.804,2.244136950542178
14.808,2.228610198375052
14.812,1.8965067722062714
14.816,1.8545090923902585
14.82,1.8778348527813482
14.824,1.8627699424990658
14.828,1.8187524715768824
14.832,1.6691616779220844
14.836,1.626123120103157
14.84,1.5650703663011214
14.844,1.063591703121312
14.848,1.4037937673715875
14.852,1.5852042522438903
14.856,1.653484932487486
14.86,1.5352090406208727
14.864,1.2522652852000888
14.868,0.9387722699238474
14.872,0.9982928442200985
14.876,0.885743965952013
14.88,0.6856482500908088
14.884,0.733460659024019
14.888,0.7119846776154048
14.892,0.4925091260582321
14.896,0.8991261581752722
14.9,0.7793416742097259
14.904,0.5634877050006061
14.908,0.5979989518347248
14.912,0.508551768839522
14.916,0.22357968025029845
14.92,0.6908535625585641
14.924,0.08591674740973554
14.928,-0.1567471219552491
14.932,0.11989952184244013
14.936,0.15307500170742577
14.94,-0.09179675396452369
14.944,0.10596739334353322
14.948,-0.17197338275671603
14.952,-0.437205953665567
14.956,-0.49101473280678176
14.96,-0.41617554734083084
14.964,-0.5341518722648788
14.968,-0.3829556155170315
14.972,-0.5327007767648323
14.976,-1.1074922890886825
14.98,-0.9109236973704685
14.984,-1.2227016934727983
14.988,-0.7457164371354836
14.992,-1.3364192970112152
14.996,-1.1559242280105089
15.0,-1.4403810953597287
15.004,-1.7624992783343827
15.008,-1.697987137093324
15.012,-1.590963691399573
15.016,-1.4985139474806155
15.02,-1.5778766424137962
15.024,-2.020228677239662
15.028,-1.7687298703046954
15.032,-1.6887979448990806
15.036,-1.8515081496600805
15.04,-2.0810492735982757
15.044,-2.045594757150321
15.048,-2.08406999821805
15.052,-1.899369049465513
15.056,-1.8714693463644305
15.06,-2.133404608589668
15.064,-2.309636391377337
15.068,-2.3661969393384674
15.072,-2.369278026382744
15.076,-2.3813213755630587
15.08,-2.582278613864943
15.084,-2.1117210366315704
15.088,-2.675508660699555
15.092,-2.303009626238456
15.096,-3.0057473316760395
15.1,-2.6313372816083276
15.104,-2.678639672826686
15.108,-2.594670905452346
15.112,-2.7164717569637435
15.116,-2.3696357803466874
15.12,-2.7140992939917776
15.124,-2.8747380361878596
15.128,-2.879655137029945
15.132,-2.782712991505525
15.136,-2.5270610954274186
15.14,-2.5048038223934563
15.144,-2.9406098135884453
15.148,-2.8306027756421064
15.152,-2.8684498935923255
15.156,-2.6937097816139874
15.16,-2.424847286626246
15.164,-2.5828652433556716
15.168,-2.4834956247830946
15.172,-2.429481377489359
15.176,-2.67170157429112
15.18,-2.791666702057985
15.184,-2.620864764096923
15.188,-2.3218862749269062
15.192,-2.3080800822530723
15.196,-2.424168078180937
15.2,-2.186276996539343
15.204,-2.313225556814351
15.208,-2.37013571333587
15.212,-2.59318264532468
15.216,-1.9884565266073224
15.22,-2.1957091398716724
15.224,-2.2143598202541965
15.228,-2.1091236746346773
15.232,-1.7347067424360303
15.236,-1.7987372134225919
15.24,-2.0100516185054333
15.244,-1.782383925450785
15.248,-1.5921106074622469
15.252,-1.6974494640502673
15.256,-1.7139959424884452
15.26,-2.087576376291858
15.264,-1.3489133314963402
15.268,-1.7287714855020302
15.272,-1.8531164744721798
15.276,-1.7855287397748363
15.28,-1.4998400488769856
15.284,-1.182890713764859
15.288,-0.9690217878253939
15.292,-1.0694628123940855
15.296,-0.7102560511678611
15.3,-1.067166143419139
15.304,-0.9249768322921647
15.308,-1.1813501664605859
15.312,-0.8353468886555289
15.316,-1.072083153862616
15.32,-0.8611637891178413
15.324,-0.3720029338537302
15.328,-0.7304708555085908
15.332,-0.6654840505866675
15.336,-0.6158257767053466
15.34,-0.06385497953041286
15.344,0.17266638074095297
15.348,-0.10399422356466054
15.352,0.17709754274232986
15.356,-0.20089641522109664
15.36,0.2984403805098824
15.364,-0.0120705332592278
15.368,0.29779146279578383
15.372,0.21530743227115545
15.376,-0.09837215128961985
15.38,0.1704974255345737
15.384,0.4355380839076858
15.388,0.0762044178915382
15.392,0.5610629497343381
15.396,0.2841941936348904
15.4,0.7019759314019007
15.404,0.41103260759125027
15.408,0.8008317253474112
15.412,0.9393459833170524
15.416,0.7877107927136672
15.42,0.8504241613047524
15.424,1.2301929341586777
15.428,0.8232858726052066
15.432,0.9173107169329943
15.436,1.1979566398029844
15.44,1.2156457749892446
15.444,1.1322359433866893
15.448,0.9696824579954765
15.452,1.437229279890179
15.456,1.013506011517833
15.46,1.775287714608269
15.464,1.114495693832089
15.468,1.163711069603385
15.472,1.4587215276865844
15.476,1.536271584917947
15.48,1.2433402598436305
15.484,1.7441016673707292
15.488,1.4753850249423328
15.492,1.3379370073512797
15.496,1.4833874355929275
15.5,1.677340284308304
15.504,1.82652960803563
15.508,1.6307830370768759
15.512,1.458512446799046
15.516,1.612888778062306
15.52,1.7673134547678615
15.524,2.109186845978918
15.528,2.4519071623446984
15.532,2.613370651976969
15.536,2.8506735908165455
15.54,2.1466266676965984
15.544,2.3920222065667223
15.548,2.2934572406585887
15.552,1.418641906701061
15.556,1.8822883891931885
15.56,2.1863579683821923
15.564,1.642056974983948
15.568,1.4481649784285948
15.572,1.2532136858495617
15.576,1.3081295604846208
15.58,1.548334760283598
15.584,1.1874333274655404
15.588,1.5297221055967034
15.592,1.3963672829820513
15.596,1.654409957363196
15.6,1.5329833411397429
15.604,1.3201693983724343
15.608,1.2587295345848197
15.612,1.1437159725370767
15.616,1.3794146579104822
15.62,1.0167380313550312
15.624,1.1161866980563435
15.628,1.035497753561508
15.632,0.730274466986203
15.636,0.9705885838282388
15.64,0.5836621296270343
15.644,0.7636789903334735
15.648,0.9333642836376878
15.652,0.7803481676240456
15.656,0.7250228946893376
15.66,0.4621329904847391
15.664,0.8027369165292912
15.668,0.3717136068575574
15.672,0.6389538889176418
15.676,0.7022271892116397
15.68,0.05461274336001809
15.684,0.2335720974292338
15.688,0.15706439780096282
15.692,0.2653268595413679
15.696,-0.039523654401931285
15.7,-0.1398913885541807
15.704,0.04509490613457179
15.708,-0.12374455046178179
15.712,-0.09378611713911866
15.716,0.06395111940587317
15.72,-0.4878886828676373
15.724,-0.239157410115441
15.728,-0.3776058155338254
15.732,-0.33450570763369003
15.736,-0.4918268902638522
15.74,-0.6659752505417798
15.744,-0.40464704616059455
15.748,0.030047049904768586
15.752,-0.5909208936414625
15.756,-0.7873999068585446
15.76,-0.8183891972474047
15.764,-0.5707809895246863
15.768,-0.967821008325249
15.772,-0.6032781603423687
15.776,-1.2451572872761454
15.78,-0.9305579551720453
15.784,-0.9003635114127051
15.788,-0.9657666278959458
15.792,-1.0067314150190625
15.796,-1.1529835176264458
15.8,-1.0484459348531134
15.804,-1.5424323721824535
15.808,-1.5392244230262468
15.812,-1.56954375931653
15.816,-1.2585378262028823
15.82,-1.5008912826721208
15.824,-1.5198322360519536
15.828,-1.760758192482887
15.832,-1.6268872042960933
15.836,-2.158597704299621
15.84,-1.9912398715512363
15.844,-2.02694499629192
15.848,-2.125458267833457
15.852,-2.1552658473277932
15.856,-2.0346224883826705
15.86,-2.132959490295428
15.864,-1.98607226529228
15.868,-2.727368679218583
15.872,-2.0351630735648394
15.876,-2.5043743906678095
15.88,-2.1351035893831183
15.884,-2.543945245644475
15.888,-2.4354171827110416
15.892,-2.717567917343665
15.896,-2.772528657292055
15.9,-2.4666271206524804
15.904,-3.1227577447139754
15.908,-2.8377788019063104
15.912,-2.486531714366178
15.916,-2.7277412422370606
15.92,-2.8318175713081306
15.924,-2.3825899204835173
15.928,-2.3139290548612865
15.932,-2.7082012605109966
15.936,-2.4444378776124562
15.94,-2.406194350049345
15.944,-2.7050496298564766
15.948,-2.800179692312605
15.952,-2.670755179387224
15.956,-2.966367332971241
15.96,-2.5776586910751953
15.964,-2.755069436970737
15.968,-2.669333031896846
15.972,-2.667200778388243
15.976,-2.8182740121514067
15.98,-2.650910905827728
15.984,-2.889318377018582
15.988,-2.7105442247237788
15.992,-2.812513284738544
15.996,-2.7349914178957744
16.0,-2.9939323365440655
16.004,-2.6218072024883776
16.008,-2.393821773432008
16.012,-2.435731144402089
16.016,-2.2056723771463926
16.02,-2.584625569494289
16.024,-2.4904618394456755
16.028,-2.1471511411716
16.032,-2.3173605260933163
16.036,-2.245793922273707
16.04,-1.7990681096330667
16.044,-2.2558159649493095
16.048,-2.2378329457037034
16.052,-2.3166315014402645
16.056,-2.142586289961164
16.06,-1.8008997162837195
16.064,-1.88304915131594
16.068,-1.658658123490509
16.072,-1.8248440082191744
16.076,-2.296432725344167
16.08,-1.6626839834894813
16.084,-1.7247855682666902
16.088,-1.6854414429346622
16.092,-1.3968598670072558
16.096,-1.6628845836000208
16.1,-1.415406998794137
16.104,-1.6937324981442319
16.108,-1.7326544011662477
16.112,-1.4618157068057243
16.116,-1.357403672408025
16.12,-1.1176268288187454
16.124,-1.380370983845488
16.128,-0.8058695469324989
16.132,-1.2211813757193455
16.136,-0.9797852961197472
16.14,-0.8998799816939922
16.144,-0.7815881268848728
16.148,-0.6735542885773791
16.152,-0.24332589910141306
16.156,-0.7631663312324101
16.16,-0.5271623853224802
16.164,-0.5533835627593384
16.168,-0.29606330442097173
16.172,-0.34064663688150676
16.176,-0.35805137722367203
16.18,-0.6690140219504012
16.184,-0.43586937672253
16.188,-0.48659580447696443
16.192,-0.3464126377710235
16.196,-0.38373585908161323
16.2,-0.26687687305704993
16.204,-0.21325518785289682
16.208,-0.1855573930515514
16.212,-0.09999155684430949
16.216,-0.2054259602456086
16.22,0.05406169377619585
16.224,-0.10156718285148619
16.228,0.008369653822529188
16.232,0.16034900539689378
16.236,-0.3043298082475774
16.24,0.7560246268604246
16.244,0.40273721105009697
16.248,0.4200815487938069
16.252,0.2747727633894622
16.256,0.4366263610902762
16.26,0.20367789812659798
16.264,0.59088723425858
16.268,0.17718563311869084
16.272,0.3158840479122581
16.276,0.4341136324030911
16.28,0.9160045083852466
16.284,0.4158555568680229
16.288,0.7515179934017868
16.292,0.28856458146857134
16.296,0.7362419842853491
16.3,1.0717264893881056
16.304,0.8383820533183773
16.308,0.312923587333493
16.312,0.7194222772400721
16.316,0.6138057530012448
16.32,0.9730339192357715
16.324,0.744616835988098
16.328,0.5483237067674179
16.332,0.9233210277194461
16.336,0.929035115917139
16.34,0.8068747521572672
16.344,1.4123922946975782
16.348,1.6413651959827067
16.352,1.9057635885829118
16.356,2.1566920414246002
16.36,1.91831794151908
16.364,1.5904037584588155
16.368,1.5479174800714568
16.372,1.5290297129205264
16.376,1.5615371212302827
16.38,1.1526383546224346
16.384,0.9768550068428171
16.388,0.8508192532093037
16.392,0.7932618311168795
16.396,1.1146159413510721
16.4,0.714763062024529
16.404,0.6920999050589018
16.408,0.8015319652319898
16.412,0.7140559172422001
16.416,0.5633618494869889
16.42,0.5412890161181669
16.424,0.7415041754147087
16.428,1.130955401973892
16.432,1.100920244439336
16.436,0.6315336352155673
16.44,0.8094204848743647
16.444,0.8492952068020762
16.448,0.666478187462821
16.452,1.0427936945868153
16.456,0.9276724443120816
16.46,0.8103142937067027
16.464,0.7366098049534349
16.468,0.38283567973595894
16.472,0.9672627441587569
16.476,0.7648514843099834
16.48,0.7085615043013295
16.484,0.4597490785541284
16.488,0.4500744451912202
16.492,0.6618373682315956
16.496,0.7694135856062642
16.5,0.8601984140659023
16.504,0.34588890268172384
16.508,0.43478254675698824
16.512,0.023111516038259394
16.516,-0.06552797232855878
16.52,0.5099747132871142
16.524,0.22601975950159425
16.528,-0.03868971560994758
16.532,0.12878776080532658
16.536,0.3959071104236767
16.54,0.3897160254004876
16.544,-0.043394648728975055
16.548,0.5314118348391725
16.552,0.11402450382763019
16.556,0.3060883258742577
16.56,0.24246816358494264
16.564,0.21149051391249815
16.568,-0.006214245012562153
16.572,0.20305822260483522
16.576,0.21367963748710028
16.58,0.11660888371165588
16.584,0.14922099869684832
16.588,0.3487992025194959
16.592,0.0004198206339725563
16.596,0.20089481122111125
16.6,0.019561802041508758
16.604,0.30443929287196464
16.608,-0.27794261874234727
16.612,0.24876661164454258
16.616,-0.13781718984012392
16.62,0.3372150766147528
16.624,-0.02473113252150777
16.628,0.03669555920165765
16.632,-0.22112017022049157
16.636,-0.052020735139941765
16.64,-0.10893352013877758
16.644,-0.3013779925074052
16.648,-0.14660483865705287
16.652,-1.0070884677951455
16.656,-0.506818591545973
16.66,-0.37914639033031444
16.664,-0.3574566380408224
16.668,-0.2793125180344942
16.672,-0.5486160373323394
16.676,-0.6071671604946854
16.68,-0.35948862825765626
16.684,-0.3571098168396494
16.688,-0.43050031438954806
16.692,-0.6489610052783604
16.696,-0.13927347809794918
16.7,-0.658591703243136
16.704,-0.6286686040458749
16.708,-0.3648798242248259
16.712,-0.3894422081709862
16.716,-0.5717575066174921
16.72,-0.8892814579577379
16.724,-0.7056164479283897
16.728,-0.6342178562704484
16.732,-0.33864621288885405
16.736,-0.15052407546487598
16.74,-0.857474639384249
16.744,-0.5648115590479265
16.748,-0.9129820348805886
16.752,-0.770705186342626
16.756,-0.9091414310806374
16.76,-0.4316442567502518
16.764,-0.6903190119351854
16.768,-0.6753257364071485
16.772,-0.7121174987566716
16.776,-0.651482285985407
16.78,-0.6178084202342289
16.784,-0.8465296201143473
16.788,-1.0346757760022098
16.792,-0.9542380675520143
16.796,-0.9807377370675427
16.8,-0.6407744375368198
16.804,-0.7915724710221426
16.808,-0.42189559416307276
16.812,-0.5759478635289199
16.816,-0.9603270875945713
16.82,-0.6687055369416882
16.824,-0.9796850444216325
16.828,-0.7740702356249491
16.832,-0.6133260469693118
16.836,-0.7237626296267683
16.84,-0.12145277964125306
16.844,-0.34855063059171776
16.848,-0.5319983180924226
16.852,-0.13303143659617067
16.856,-0.6102758826782058
16.86,-0.45533855356049696
16.864,-0.20105628385395802
16.868,-0.5733939826863328
16.872,-0.2003771629633474
16.876,-0.2576902634998753
16.88,-0.17367162567641337
16.884,0.07009008838610892
16.888,-0.14776885482031626
16.892,-0.18611391154707696
16.896,-0.4947604490062004
16.9,-0.12344630415662766
16.904,-0.22976000959301535
16.908,-0.12934157821337966
16.912,-0.1944650616015734
16.916,0.02866858538797129
16.92,-0.22574480134167507
16.924,0.040207432847080116
16.928,-0.1752479039260092
16.932,-0.2985544895418009
16.936,0.03352444045910352
16.94,0.19835566997002757
16.944,0.0010907396609755038
16.948,0.19259129169304484
16.952,0.1612314092832846
16.956,0.044365985506959804
16.96,0.40221015313227254
16.964,0.20443809761222964
16.968,0.42615205106656395
16.972,0.10177797059921467
16.976,0.4718556272929392
16.98,0.6084759373003397
16.984,0.6056557255919164
16.988,0.7143498045625921
16.992,0.7168375692011759
16.996,0.6524520314729287
17.0,0.7805916366240405
17.004,0.5530523448266808
17.008,0.7428191248212379
17.012,0.6606682622165336
17.016,1.025924191353968
17.02,0.7079280555165344
17.024,0.41514471425999566
17.028,0.738245042306702
17.032,0.4879439339637664
17.036,0.8540759802744196
17.04,0.8752909605135222
17.044,0.62001262980579
17.048,0.5367351470998862
17.052,0.7641731321234251
17.056,0.5967003779573512
17.06,0.6287253198224971
17.064,0.6944603316642517
17.068,0.9426555387532929
17.072,0.5422933046196536
17.076,0.716675234129518
17.08,1.341989806553856
17.084,1.2791622747401346
17.088,1.1388446176704075
17.092,0.9182238746758926
17.096,1.0844226130491808
17.1,0.8481951873204839
17.104,0.4070163720136266
17.108,0.8435725486494701
17.112,0.8586051148131366
17.116,0.9969341915337026
17.12,1.093428859281182
17.124,1.3269691873762808
17.128,1.0047014151288942
17.132,0.7985114117962403
17.136,0.955843996842134
17.14,1.0953519596121366
17.144,0.9083155014879363
17.148,0.7467632074679167
17.152,1.0094904376005438
17.156,0.6850130381833952
17.16,0.7967841608356272
17.164,1.1166070033458486
17.168,0.9733688135379148
17.172,1.2325279453911828
17.176,1.462653308649855
17.18,1.6328082074197183
17.184,1.6575640109079195
17.188,2.0804224949293286
17.192,1.8969802296965983
17.196,2.3829038925435952
17.2,1.8373589900052814
17.204,1.8634487141927334
17.208,1.6819655306096641
17.212,1.2787258507386134
17.216,0.9858823719378571
17.22,1.2155396323919088
17.224,0.6583804145394512
17.228,0.6340517292116998
17.232,0.9462163043731098
17.236,0.7814437849866975
17.24,0.7535176076750797
17.244,0.8369643951302884
17.248,0.8271267088837053
17.252,1.4488423303013778
17.256,1.229833645744606
17.26,0.8684979377182371
17.264,0.9792283832921227
17.268,1.1546849642662547
17.272,0.8175123582905699
17.276,0.932079282169524
17.28,0.9576814355713987
17.284,0.8521230520723293
17.288,1.2226966590849349
17.292,0.8635874068419211
17.296,0.9858079944537449
17.3,1.025578929902326
17.304,1.303090935849691
17.308,0.9711835426617976
17.312,1.412532410766723
17.316,0.8996787496854347
17.32,0.9140634460862308
17.324,1.146579544061908
17.328,1.342208949857627
17.332,0.9064486812215209
17.336,1.2199623206676313
17.34,1.1337644112751064
17.344,0.7940289635920534
17.348,0.9690233461005978
17.352,0.9461230041397101
17.356,0.7571043299248144
17.36,0.9826567952568144
17.364,0.9741034958456622
17.368,1.0522324250196926
17.372,0.9772011743421225
17.376,0.8450086423552112
17.38,1.478429346228865
17.384,1.024811526313221
17.388,1.241471277868392
17.392,1.103878056816009
17.396,1.345283608380051
17.4,0.8726541722119556
17.404,1.0197724106088686
17.408,0.9399254451972413
17.412,0.9453661483698191
17.416,1.1006267137078996
17.42,1.018066668465002
17.424,0.7798668997899942
17.428,1.0071592655382235
17.432,0.9907564927393906
17.436,1.2427860124532921
17.44,0.7717632003070121
17.444,0.9609654251982273
17.448,0.8902940474195916
17.452,1.1862906268898128
17.456,0.9356713096880954
17.46,1.2298566773126751
17.464,0.9936434601787144
17.468,1.1007523981650367
17.472,1.206997316980312
17.476,0.708188484200122
17.48,0.9029129327336567
17.484,1.0135903003502862
17.488,0.9573640485296009
17.492,0.633975345231949
17.496,1.0199341688314276
17.5,0.8502450644141574
17.504,0.8591926742071627
17.508,0.7897186689656428
17.512,0.2012625813188914
17.516,0.9098125194762062
17.52,0.8942647251417442
17.524,0.6881455375270711
17.528,0.4537126239897513
17.532,0.6544323655104356
17.536,0.9389506238123937
17.54,0.6598548911785906
17.544,0.7262167155488632
17.548,0.6611990456853969
17.552,0.7574175085003867
17.556,0.44231842752906464
17.56,0.665976227034204
17.564,0.9138499035304016
17.568,0.5143035869360127
17.572,0.6399684999780537
17.576,0.9104389827035162
17.58,0.8432047256738038
17.584,0.7807122351072574
17.588,0.7718514314712398
17.592,0.7456223406521904
17.596,0.6304364057675327
17.6,0.8903385490476392
17.604,0.595435788073245
17.608,0.48897381138661644
17.612,0.420926963945428
17.616,0.5643124286199541
17.62,0.5522824068433557
17.624,0.5439574518291728
17.628,0.4314942277599446
17.632,0.7566106308868573
17.636,0.47366833839796596
17.64,0.7999814564894812
17.644,0.8289948541709949
17.648,1.201450293635766
17.652,0.5885197767492707
17.656,0.650705163222844
17.66,0.5475465008688785
17.664,0.4417505652741872
17.668,0.6119381925517836
17.672,0.5280944109307122
17.676,0.4382304145429301
17.68,0.7518420165419509
17.684,0.4914834047313206
17.688,0.8006789000205308
17.692,0.8588168385907022
17.696,0.517878144459579
17.7,0.9650595087289323
17.704,0.7674172555799217
17.708,0.6834338602362197
17.712,0.35844220759367856
17.716,0.34709316950082575
17.72,1.0178153320408145
17.724,0.9602076131712955
17.728,0.9955832381100775
17.732,1.0631594886481541
17.736,0.9649068566788646
17.74,0.7532800597485306
17.744,0.8174769959042629
17.748,0.5569393346437965
17.752,0.749618533255783
17.756,0.8373880085105381
17.76,0.8542579368606416
17.764,0.666949583864986
17.768,0.29780002698545477
17.772,0.4047987983152602
17.776,0.8017466179309932
17.78,0.5962406591050275
17.784,0.8404730389221566
17.788,0.4842165936019163
17.792,1.0114027726835402
17.796,0.5554692179920602
17.8,1.0456606307942253
17.804,0.4573681914960547
17.808,0.8953754613691428
17.812,0.5988415978046457
17.816,0.8138753817627328
17.82,1.0118123427781072
17.824,0.9884761137847414
17.828,0.6378589983203067
17.832,0.6601818602375639
17.836,0.45814571164046075
17.84,0.4132814360893938
17.844,0.5708892098525573
17.848,0.5875720086960728
17.852,0.4175287887122556
17.856,0.6590541045028503
17.86,0.6930547570918348
17.864,0.6671268230337619
17.868,0.5032437654378299
17.872,0.5219372606036159
17.876,0.5691358571827776
17.88,0.7952209883069906
17.884,0.4695726176762275
17.888,0.2756251449460529
17.892,0.5111286258652282
17.896,0.5190663193023993
17.9,0.25969742608342367
17.904,0.5025336199469774
17.908,0.40048863171645654
17.912,0.5484650613864139
17.916,0.6426597612518103
17.92,0.4625719421556947
17.924,0.6680317230842469
17.928,0.48551759845031106
17.932,0.5035321061460444
17.936,0.49018687571679004
17.94,0.49925064215124254
17.944,0.2489282356012847
17.948,0.16624389173580367
17.952,0.7547046087633593
17.956,0.5635104220764034
17.96,0.3997518683216364
17.964,0.7197115284987189
17.968,1.0686163156229709
17.972,0.14597600299870161
17.976,0.404624204998742
17.98,0.536522427448573
17.984,0.02388297505919279
17.988,0.02334313149099243
17.992,0.5499361328535829
17.996,0.39606970622209225
18.0,0.49457739443270876
18.004,0.5996912358569804
18.008,0.7325764108262747
18.012,0.9366899086188701
18.016,1.1177625157033444
18.02,1.2932379811918344
18.024,1.4018149287232324
18.028,1.4210727322518228
18.032,1.326677235076438
18.036,1.1650605652453745
18.04,0.9488897736250618
18.044,0.760820602217398
18.048,0.5701167797563005
18.052,0.438713049446198
18.056,0.31583299656231956
18.06,0.22347145912224978
18.064,0.1654542523163994
18.068,0.15824016903206287
18.072,0.1526993498926379
18.076,0.21851048407366708
18.08,0.2676381993579434
18.084,0.31646242519550594
18.088,0.33200667116038335
18.092,0.35321910928428957
18.096,0.3301028215599705
18.1,0.33015968859739003
18.104,0.32998593985003416
18.108,0.3298783543249889
18.112,0.32593406553653886
18.116,0.312945512513559
18.12,0.30539002241508084
18.124,0.30380461667970643
18.128,0.28845626657946
18.132,0.29802324201313063
18.136,0.29587365160684553
18.14,0.29665773348293445
18.144,0.28998517137960345
18.148,0.3026459335046604
18.152,0.2896083075879493
18.156,0.2860613352662371
18.16,0.28002610144780515
18.164,0.27997202574770746
18.168,0.271245404180562
18.172,0.2739452764827699
18.176,0.29237152239679837
18.18,0.2734197342963147
18.184,0.2625623236328327
18.188,0.28543475401323837
18.192,0.2906453594848639
18.196,0.287706733485649
18.2,0.27247120152424187
18.204,0.31000268513063306
18.208,0.30604930095331034
18.212,0.30791359734763046
18.216,0.3307130937185724
18.22,0.30682839660593303
18.224,0.3367157433264278
18.228,0.3388260508903388
18.232,0.3677241731609636
18.236,0.3635358637520497
18.24,0.36029462850205907
18.244,0.38747695950973415
18.248,0.3577670009781316
18.252,0.3926043371228452
18.256,0.37877338266708543
18.26,0.38920077530259106
18.264,0.392222391506723
18.268,0.40279377703771
18.272,0.41295496963001377
18.276,0.36845738877610873
18.28,0.3841268660835785
18.284,0.3931897651416051
18.288,0.35507568028148356
18.292,0.34231585025528255
18.296,0.33722214041866977
18.3,0.3278273496579854
18.304,0.3094385476194871
18.308,0.2814333714114418
18.312,0.2581879450317507
18.316,0.25981167962708784
18.32,0.21879753164257498
18.324,0.1869389185177281
18.328,0.17099015352177444
18.332,0.15924086438320578
18.336,0.15963345065256931
18.34,0.11291328050743356
18.344,0.1206204728792989
18.348,0.09970109709913617
18.352,0.07083274248084728
18.356,0.025819174579796912
18.36,0.023026097999386312
18.364,0.012939416546790518
18.368,0.021847790093632705
18.372,-0.015036673383314804
18.376,-0.030135200693006542
18.38,-0.032793449987290425
18.384,-0.06029540774693082
18.388,-0.05727297724425825
18.392,-0.07519599352124882
18.396,-0.049930064815394075
