time,ecg
0.0,0.008478518564904251
0.004,0.013065584409873444
0.008,-0.004855571163623513
0.012,-0.00038688267080288835
0.016,-0.0010418755340144568
0.02,-0.0063528024986513896
0.024,0.007357495297606193
0.028,0.0036284824662322556
0.032,0.0014182317511960622
0.036,0.0035830543919592485
0.04,0.006154512479574837
0.044,0.0060543701913038815
0.048,-0.008384899561218573
0.052,0.008963285487429461
0.056,0.002553661176805593
0.06,-0.004346161949802652
0.064,0.002342296914461701
0.068,0.0034447747672505325
0.072,0.010817836671641238
0.076,-0.010461556284851804
0.08,0.013249843536541935
0.084,0.000231663563098284
0.088,-0.00506153250748595
0.092,-0.005367580998571207
0.096,-0.010013677583425274
0.1,-0.01740914883756553
0.104,0.006773998803598782
0.108,0.01980886400424299
0.112,-0.016176153488279388
0.116,-0.009504279159044575
0.12,0.007515831892283525
0.124,-0.00045636908412048936
0.128,0.008344192430650215
0.132,-0.0010172052080423377
0.136,-0.005806274924827228
0.14,-0.002258420915420167
0.144,-0.023820893696664864
0.148,-0.011434842047392188
0.152,0.009482797422308826
0.156,0.0119190078102215
0.16,0.014061683797220196
0.164,0.0044087496886006505
0.168,-0.022560556194729083
0.172,-0.006349760708194007
0.176,0.013247238981164873
0.18,0.01623203181248141
0.184,0.013629646983086998
0.188,-0.0023559502000075755
0.192,-0.013052466290605746
0.196,-0.0003801203227588497
0.2,0.000198389576488002
0.204,0.015749864253161005
0.208,0.002449860737721621
0.212,0.00047269108678405425
0.216,0.0012653298066607225
0.22,0.004894991731877755
0.224,0.00774113840707455
0.228,-0.004874081534393681
0.232,-0.006864706965482543
0.236,0.019367914227741836
0.24,-0.007990198519236772
0.244,0.028582347541726533
0.248,-0.0018632863996317223
0.252,0.017901092064980632
0.256,0.04159396334708783
0.26,0.04170901395876192
0.264,0.04002336424651652
0.268,0.07038190266205875
0.272,0.08078281558193248
0.276,0.09245634019769458
0.28,0.10268313265322469
0.284,0.12187547933000335
0.288,0.1278589671561041
0.292,0.1668586217588856
0.296,0.14569206422037584
0.3,0.1462624304618089
0.304,0.14267587428366568
0.308,0.16028280349877594
0.312,0.11728751449667196
0.316,0.12581586354430355
0.32,0.10652945584228957
0.324,0.08038282203569408
0.328,0.07192200888529642
0.332,0.0692871610598571
0.336,0.04454420008757427
0.34,0.04430123435018021
0.344,0.04916695592811832
0.348,0.025452510165466957
0.352,0.002708375787665548
0.356,0.0037369103312197578
0.36,0.005566157037685886
0.364,0.0021399778237825772
0.368,0.005231635431995762
0.372,0.0054957222266834565
0.376,0.018782017097860024
0.38,0.0008592067837556547
0.384,-0.0109915661428812
0.388,0.011843940600875714
0.392,0.012802193492870319
0.396,0.002418646804906288
0.4,-0.002413626835531166
0.404,0.006251636368019516
0.408,-0.0020977073125392777
0.412,-0.020552004227819134
0.416,0.005628534241374558
0.42,0.00887368512884616
0.424,0.014181485043581247
0.428,-0.00820366775415228
0.432,-0.0007142715573369364
0.436,-0.005941495967515996
0.44,-0.019442715640079822
0.444,-0.04053835863955741
0.448,-0.07255782262165085
0.452,-0.10646939170454578
0.456,-0.12985677177796767
0.46,-0.13393118955416008
0.464,-0.13492175598613554
0.468,-0.0820798311698061
0.472,-0.011510332872174062
0.476,0.0879730546667036
0.48,0.2128917380035501
0.484,0.40293447635054863
0.488,0.6083476904177318
0.492,0.7982880155464012
0.496,0.9456249349857613
0.5,1.004051302223884
0.504,0.959679497488375
0.508,0.7950467189726248
0.512,0.5898576698112901
0.516,0.3961794361699159
0.52,0.23436162412129968
0.524,0.054227935228343016
0.528,-0.04944246151265488
0.532,-0.14137027817124617
0.536,-0.2432938581337938
0.54,-0.24198753011637467
0.544,-0.22347929338001704
0.548,-0.1837894585154182
0.552,-0.1279507949842508
0.556,-0.0752358112004893
0.56,-0.036896238389072814
0.564,-0.016757399033062333
0.568,-0.009469823915851033
0.572,-0.004407755906537379
0.576,0.012228157402553001
0.58,-0.011301538600292805
0.584,-0.016293838095843848
0.588,0.013641514458662712
0.592,0.0001154770391896421
0.596,-0.0012691435050825664
0.6,0.0022205239166518975
0.604,0.006315921670411859
0.608,7.687713811599904e-05
0.612,0.01171174309254594
0.616,-0.0013530560512826553
0.62,0.007195974641884777
0.624,-0.009611238722868856
0.628,0.02700906072969602
0.632,0.016761553859432444
0.636,0.02900094717260851
0.64,0.031442231080478424
0.644,0.03720656458615982
0.648,0.037371337113006435
0.652,0.04782919096610154
0.656,0.04163033273080009
0.66,0.04765782416278716
0.664,0.06733490208435026
0.668,0.0713797824998492
0.672,0.10310756672757446
0.676,0.10409325600834046
0.68,0.10542851575421464
0.684,0.12281932828885503
0.688,0.14040077106868037
0.692,0.1524033097771618
0.696,0.17015032695434726
0.7,0.18264574335841297
0.704,0.18257772166106404
0.708,0.18930627118548007
0.712,0.2210125163985778
0.716,0.2436791472557135
0.72,0.24695737307774576
0.724,0.27442799692770725
0.728,0.27185239365305985
0.732,0.29474842932632306
0.736,0.2999865478641238
0.74,0.30457247064377124
0.744,0.285812641029074
0.748,0.29993150265413715
0.752,0.31198783084922826
0.756,0.3005712046187244
0.76,0.29960320104201627
0.764,0.27458864042032455
0.768,0.3003643679898839
0.772,0.2644075166203947
0.776,0.24211810437615303
0.78,0.24706980604513087
0.784,0.21359938168951925
0.788,0.21389735539958604
0.792,0.23640043519156365
0.796,0.1926838813707326
0.8,0.16768132623399198
0.804,0.16768584549066579
0.808,0.1441053018883312
0.812,0.14771589724553869
0.816,0.11663928488005042
0.82,0.11530066675677161
0.824,0.08887122134654477
0.828,0.11484320644298572
0.832,0.08321378350408001
0.836,0.06689090344457814
0.84,0.05644002721877163
0.844,0.045707177024425893
0.848,0.036337782240634615
0.852,0.029565125136938035
0.856,0.04849171528706611
0.86,0.021150345660603538
0.864,0.001005717188852711
0.868,0.006862753616229796
0.872,0.024563935581049648
0.876,0.01001248326406542
0.88,0.008873420419016094
0.884,0.019967714201068937
0.888,-0.0011192340742664656
0.892,0.011641566653362388
0.896,-0.002455676516403409
0.9,0.009091465328996278
0.904,-0.0012981343441371418
0.908,-0.0003795011630611171
0.912,0.009777482335420067
0.916,0.00869262456678338
0.92,-0.0007276652314414818
0.924,-0.004012546815364242
0.928,0.016522462960249503
0.932,0.006291421863319933
0.936,-0.003614831917593912
0.94,-0.006311302869714185
0.944,0.010410448145696275
0.948,0.0012720074292707536
0.952,-0.001549838998740076
0.956,0.0012115807623452521
0.96,0.0034222988213109
0.964,-0.0005353033427724921
0.968,0.012059251070831318
0.972,0.012609183906998094
0.976,0.00533005575147974
0.98,0.013755251240905526
0.984,9.119337057858802e-05
0.988,0.006908998920673111
0.992,0.010051401464691394
0.996,0.010201032522679013
1.0,0.00917907667625597
1.004,0.006347651108221866
1.008,0.01963827978266938
1.012,-0.005273507036451694
1.016,-0.0013298027091445815
1.02,-0.0017541310270040333
1.024,-0.003010478952112953
1.028,-0.018767781981443448
1.032,0.015572935011015207
1.036,-0.0073638441006430525
1.04,0.006181031274347784
1.044,-0.007455985905465926
1.048,0.016151039169128256
1.052,0.006398138057967684
1.056,0.008550956269187905
1.06,0.029056018613629282
1.064,0.02897919339067869
1.068,0.040816088212555786
1.072,0.060429592408413675
1.076,0.08016711771863637
1.08,0.07828041341789442
1.084,0.09106378503473542
1.088,0.1151767617392375
1.092,0.13292538012775007
1.096,0.15255406417087258
1.1,0.13468371889335382
1.104,0.14621850226096816
1.108,0.16138733301994837
1.112,0.16580432091062922
1.116,0.1290666082784467
1.12,0.12153330317864192
1.124,0.12036446667231575
1.128,0.09693129795218502
1.132,0.08062860246340432
1.136,0.07630616295661057
1.14,0.07577044852785718
1.144,0.03485164590866158
1.148,0.05215818030496602
1.152,0.022346958149150557
1.156,0.024153624190936227
1.16,0.0307685096121227
1.164,0.013653385744645575
1.168,0.004119925713774812
1.172,0.01189942245528391
1.176,0.0013260326132503357
1.18,0.0071452255868393825
1.184,-0.0008572835564540381
1.188,0.009325510831579986
1.192,-0.013524599758143213
1.196,-0.00989700649422094
1.2,-0.013956874896513627
1.204,-0.0004925550732705408
1.208,-0.015257502224164828
1.212,-0.006898874566705759
1.216,-0.01106579588186014
1.22,0.014798137389243274
1.224,-0.00992453887894958
1.228,-0.012964503752259245
1.232,0.0020572421178334625
1.236,0.01531912331023203
1.24,-0.005954963931789815
1.244,-0.01302948520375426
1.248,-0.015497358922164927
1.252,-0.045588626475200615
1.256,-0.08437055399844233
1.26,-0.12867748191750852
1.264,-0.13968021634172448
1.268,-0.15507387638482442
1.272,-0.11626297366943153
1.276,-0.03709300845058066
1.28,0.04633438971771016
1.284,0.15285975713290847
1.288,0.2815698703218978
1.292,0.47695596861278544
1.296,0.6861581091078125
1.3,0.8712511269742094
1.304,0.9700454805388177
1.308,0.9866696976249216
1.312,0.908208832655654
1.316,0.7198929305919165
1.32,0.5124719768461309
1.324,0.30330136741811015
1.328,0.1295034708275068
1.332,-0.0030678200515274964
1.336,-0.11854681827436955
1.34,-0.18585434613844762
1.344,-0.23283983183915843
1.348,-0.25342002937031227
1.352,-0.20955968123812266
1.356,-0.14032387979887942
1.36,-0.07727258872475758
1.364,-0.04376133765794528
1.368,-0.024933593642659894
1.372,-0.0013421602600679396
1.376,0.010985090426326026
1.38,-0.02030892204067332
1.384,0.015415002564007558
1.388,-0.004443087062327858
1.392,-0.003995056913712721
1.396,-0.0017850660216379838
1.4,0.005474588366506481
1.404,-0.008202204359684292
1.408,0.0008530725782606918
1.412,0.009929728982966237
1.416,0.008057942382124976
1.42,0.01113408309386529
1.424,0.005841527450388274
1.428,0.0181223355885585
1.432,0.02425300875667289
1.436,0.026610364130095595
1.44,0.024388872765470283
1.444,0.033535480879570104
1.448,0.03751501479191999
1.452,0.060906632451746504
1.456,0.05239011776181437
1.46,0.04616622191445164
1.464,0.04559479193486017
1.468,0.06059857920877154
1.472,0.06924470377470121
1.476,0.08788174729218069
1.48,0.08680284341430929
1.484,0.11755882984407902
1.488,0.10430648417544071
1.492,0.11509270415710042
1.496,0.14382813513563586
1.5,0.15093288861887758
1.504,0.1612242294865128
1.508,0.18198454069652
1.512,0.19520465944385273
1.516,0.21710262526857957
1.52,0.22448879771488667
1.524,0.23829374391370758
1.528,0.2557174848979974
1.532,0.2768759796310425
1.536,0.29110411939299224
1.54,0.2860603417772151
1.544,0.29339725938917927
1.548,0.2941201311106098
1.552,0.3037348946270915
1.556,0.3038986878987848
1.56,0.31241219284618027
1.564,0.27752315034742314
1.568,0.2894732346994329
1.572,0.2888564334857739
1.576,0.27720486673790545
1.58,0.2585826300142395
1.584,0.24416108695122718
1.588,0.25326092111474185
1.592,0.22473583451784132
1.596,0.20113730247856537
1.6,0.21311831106809748
1.604,0.19470153433397022
1.608,0.17440436824559924
1.612,0.15194804625097813
1.616,0.14573914555397705
1.62,0.14521037794275496
1.624,0.103619695437231
1.628,0.09147836397249595
1.632,0.08891655400910907
1.636,0.08379146290284366
1.64,0.06878793666895205
1.644,0.07072300387046204
1.648,0.06658198754317719
1.652,0.050723019886457305
1.656,0.04659889300073847
1.66,0.03755612554370614
1.664,0.029507385603402984
1.668,0.011739642017922875
1.672,0.010289114422425801
1.676,0.0035275753946443274
1.68,0.012536007001037196
1.684,0.0137883302027596
1.688,-0.005176621254004097
1.692,0.008247110484834726
1.696,-0.002718784781200685
1.7,-0.005882970705699133
1.704,-0.0024448219005388317
1.708,-0.008207598327683136
1.712,0.008410111354196422
1.716,0.00014069197412705232
1.72,0.009557689118478737
1.724,-0.0033568482412022027
1.728,-0.0032351761716344963
1.732,0.01935607718513754
1.736,-0.015762388616222565
1.74,0.013194876679446474
1.744,0.016805298055340943
1.748,0.007850135573826793
1.752,-0.0031639136328051975
1.756,0.014371623361829554
1.76,-0.003143318093344183
1.764,-0.007004401015664561
1.768,-0.0038444686002454855
1.772,-0.005674791906548257
1.776,-0.009447071772015654
1.78,0.0111135149674687
1.784,-0.007725120474501994
1.788,-0.00028998704689829727
1.792,-0.014433258887849307
1.796,0.00031115563908185403
1.8,-0.011557189472185392
1.804,-0.01180346013825059
1.808,-0.0010919404410708318
1.812,0.010570351006320956
1.816,0.004404560261336972
1.82,0.00509150053346049
1.824,-0.0012989343514069503
1.828,-0.003356146723997137
1.832,0.007911803133433521
1.836,-0.005631003340175669
1.84,0.008345942247306096
1.844,0.012362824357557721
1.848,-0.008406948822024978
1.852,-0.006930507479128319
1.856,-0.005429527100722167
1.86,-0.014617038526889312
1.864,-0.004595741292758353
1.868,0.013193554673170205
1.872,-0.01013779148725649
1.876,0.013802321140522423
1.88,-0.003405909342169461
1.884,0.022667331862506357
1.888,-0.004370488916876658
1.892,0.0023844255302837426
1.896,-0.003277773359488121
1.9,0.00176844278753132
1.904,0.02589105350343838
1.908,0.022387772265456404
1.912,0.03454120611232859
1.916,0.01934207533937013
1.92,0.048993477282016785
1.924,0.04432152666137415
1.928,0.053679981333340766
1.932,0.08349082104422391
1.936,0.09790308881622306
1.94,0.11041403273565888
1.944,0.13025504613509797
1.948,0.14311494535020763
1.952,0.15770554784672594
1.956,0.13644124310984748
1.96,0.16501104732697
1.964,0.16664537563129578
1.968,0.13834048871597698
1.972,0.11627966407175792
1.976,0.10751985743246795
1.98,0.10334085660006458
1.984,0.1137564548203071
1.988,0.07929566142618477
1.992,0.05901536436085655
1.996,0.045493222019037396
2.0,0.027746681236411594
2.004,0.04000676530551376
2.008,0.02232704413245965
2.012,0.037849862057844935
2.016,0.018188537575269254
2.02,0.016499212819520395
2.024,0.0030833744465003894
2.028,-0.007308668081012134
2.032,-0.006438763506355043
2.036,-0.012264490428307738
2.04,0.00996922579382534
2.044,-0.0033380915566159266
2.048,0.009819224194717494
2.052,0.0015242454021356364
2.056,-0.002837878506698645
2.06,-0.011647885330465376
2.064,0.003041320039953829
2.068,-0.002173889302619521
2.072,0.009026397116287006
2.076,-0.007161678681833427
2.08,0.006106327833445165
2.084,0.01615515872477191
2.088,0.0017471830930827473
2.092,0.004639449132911159
2.096,-0.003272893414922517
2.1,-0.0024574440397912255
2.104,-0.03983293817579654
2.108,-0.06834736501633991
2.112,-0.11130347244379424
2.116,-0.14638384911395338
2.12,-0.15785236705412448
2.124,-0.11232975055101638
2.128,-0.08622838273759434
2.132,0.006176777339977506
2.136,0.1059285520032915
2.14,0.24898768571569374
2.144,0.4107597332392946
2.148,0.6097973333457924
2.152,0.8158389891636908
2.156,0.9498294751536039
2.16,0.9872884902879034
2.164,0.9574527762073838
2.168,0.778818138742415
2.172,0.5773135394110663
2.176,0.3812046119778104
2.18,0.21672305553626398
2.184,0.034953524149539394
2.188,-0.0517349323264915
2.192,-0.1677444203935759
2.196,-0.220204595687035
2.2,-0.2530397219497059
2.204,-0.2070734184740927
2.208,-0.17587117526532037
2.212,-0.12456915145959964
2.216,-0.06931464841909236
2.22,-0.030883257096467085
2.224,-0.01105037409703472
2.228,0.0002037574111768952
2.232,-0.0008398960258602617
2.236,-0.01340141577270958
2.24,-0.0025336290784108107
2.244,0.007287492924662301
2.248,-0.005096478376715478
2.252,0.008799255794849343
2.256,0.0029750710347833656
2.26,0.0012108127097388089
2.264,0.016233053123872576
2.268,-0.01198010979094294
2.272,1.102488663253312e-06
2.276,0.020716800603211873
2.28,0.028662013046824322
2.284,0.03557080208548147
2.288,0.015997001740031935
2.292,0.023343649407930038
2.296,0.030755872666882816
2.3,0.03975230047957557
2.304,0.035211574661802435
2.308,0.04713349601845608
2.312,0.04902135549531706
2.316,0.0569984234124115
2.32,0.05077700457539701
2.324,0.0657038480644359
2.328,0.07365858944673001
2.332,0.07772995677176481
2.336,0.08464616937662156
2.34,0.10922758869713155
2.344,0.12381072822448475
2.348,0.14107277607261925
2.352,0.15962035678826636
2.356,0.1703112658420472
2.36,0.18039307694983953
2.364,0.18832897790595915
2.368,0.22056118613525896
2.372,0.22467046905884938
2.376,0.23462674387775076
2.38,0.24954282940611663
2.384,0.255483162140426
2.388,0.26767165869752385
2.392,0.2761061267427428
2.396,0.28603532163751805
2.4,0.3009370428195754
2.404,0.30211143191459583
2.408,0.3152890161730863
2.412,0.31180674729651114
2.416,0.3172105016230575
2.42,0.29932271808074506
2.424,0.2934493055873809
2.428,0.2757406335386299
2.432,0.27991759990274206
2.436,0.2547471271299113
2.44,0.23504532654285182
2.444,0.25244314361623704
2.448,0.21131382198100135
2.452,0.21422677064904255
2.456,0.18668410646958755
2.46,0.19222288330235468
2.464,0.17906603621016712
2.468,0.15739708585311626
2.472,0.1505849239315371
2.476,0.12469611633534827
2.48,0.1340678266614209
2.484,0.10698668346128604
2.488,0.07908529343472606
2.492,0.07816889170763686
2.496,0.06617498423799299
2.5,0.05627832269004063
2.504,0.03414272349909197
2.508,0.047342656438749894
2.512,0.02317224572815795
2.516,0.006085492116690391
2.52,0.022914398838044962
2.524,0.014462126313222665
2.528,0.00966738767527703
2.532,-0.015948726320959415
2.536,0.0038541796018412167
2.54,0.008332320432550524
2.544,0.0018066399144061945
2.548,0.010425326561720013
2.552,0.019161322254250747
2.556,0.009319335689580002
2.56,0.013541933472289075
2.564,0.01366045417109202
2.568,-0.008187804600764412
2.572,0.005939369671192602
2.576,0.011141946503537758
2.58,-0.0034502084751298033
2.584,-0.007215957033097965
2.588,0.0058247255211644425
2.592,-0.014426089258217017
2.596,-0.010589483805572474
2.6,-0.006452576792848006
2.604,0.004663195872339988
2.608,0.0023045817495931974
2.612,0.01040751048385671
2.616,-0.009158262897755549
2.62,-0.009711420245371747
2.624,0.005269957156508728
2.628,-0.00796485202253927
2.632,-0.0060197023918854
2.636,-0.018556935740792008
2.64,0.002915895308886711
2.644,0.015418033174059789
2.648,-0.010289372375165497
2.652,0.010219437424000662
2.656,-0.0005923441946976284
2.66,-0.01765300175047245
2.664,-0.008946407744606696
2.668,-0.009563882508473632
2.672,-0.003164268686846247
2.676,0.00419685977315571
2.68,0.018492573007218887
2.684,-0.014304716698911644
2.688,-0.004834271036436948
2.692,-0.008933284404757545
2.696,-0.01262891214961377
2.7,0.0010496781438801832
2.704,0.00018845424677222902
2.708,-0.017829250686441055
2.712,0.0007166657722057505
2.716,-0.011149864187160909
2.72,0.0016070485743803534
2.724,0.01508455866497503
2.728,0.00836922225073771
2.732,0.007476324284493549
2.736,0.0031866688317837124
2.74,0.012946735692239076
2.744,0.02297203230187964
2.748,0.028510155527424398
2.752,0.031033296698503923
2.756,0.04405779606845237
2.76,0.040227260600898665
2.764,0.05900041725074242
2.768,0.08742806426278493
2.772,0.10327970119771498
2.776,0.11009091076070235
2.78,0.13721983721049655
2.784,0.13892936998145783
2.788,0.1403033536833585
2.792,0.13595747244380402
2.796,0.16438679759647967
2.8,0.15573161691179785
2.804,0.1603741631765256
2.808,0.1551749315529258
2.812,0.10914298106982788
2.816,0.09584616916616268
2.82,0.0657422224497294
2.824,0.08905684431833123
2.828,0.07245658516133033
2.832,0.053961583034329026
2.836,0.02926628902424846
2.84,0.030835502937092817
2.844,0.025472024644216235
2.848,0.024975176880469407
2.852,0.014861905676425256
2.856,0.01500440141912383
2.86,0.004382420550757898
2.864,0.015499440107635347
2.868,0.008670416808806192
2.872,-0.01040453889106688
2.876,0.014780976011642704
2.88,0.012781353781612654
2.884,0.004957763647350867
2.888,0.002977442579268659
2.892,0.016679369957391024
2.896,-0.016283346486470895
2.9,0.012438127192350757
2.904,-0.004749135796869872
2.908,0.010956732841037676
2.912,0.001197231469425239
2.916,-0.012479469620683858
2.92,-0.005200185855034027
2.924,0.009301866725671544
2.928,-0.0051340945394102305
2.932,-0.014770144283666478
2.936,-0.026850585465781562
2.94,-0.03571091743363585
2.944,-0.05600646440740048
2.948,-0.13056906560523784
2.952,-0.10959913520974954
2.956,-0.14402095476439003
2.96,-0.12099701181293672
2.964,-0.08371027013963753
2.968,-0.00587733966120789
2.972,0.09751120292980253
2.976,0.22114988089457358
2.98,0.397824157776236
2.984,0.6188298782343673
2.988,0.7872975707717323
2.992,0.9518712286528148
2.996,0.9961453530573589
3.0,0.9341848485659968
3.004,0.8159546111273968
3.008,0.5885607669809789
3.012,0.3825116972266457
3.016,0.21089693219929864
3.02,0.055906819440507335
3.024,-0.05770481829961555
3.028,-0.15278456022574627
3.032,-0.21808779041356718
3.036,-0.24739393722045178
3.04,-0.2359383799744592
3.044,-0.17371793730913992
3.048,-0.12163097230803183
3.052,-0.07354489567628336
3.056,-0.01836007926022225
3.06,-0.014724715773266062
3.064,0.006451723827522938
3.068,0.011339523334842644
3.072,0.013209359235299317
3.076,0.007760754720477828
3.08,0.0011962495255732643
3.084,0.000940157159360421
3.088,-0.0003969278183474992
3.092,-0.019045008651590575
3.096,0.010534137574834236
3.1,0.006684305059171959
3.104,0.013592830420787487
3.108,0.0055069725710781255
3.112,0.014947460353505871
3.116,-0.0035253202363668672
3.12,0.0008853096134344499
3.124,-0.009425553153012724
3.128,0.017237384087682404
3.132,0.014642625403731957
3.136,0.017721124074588493
3.14,0.035144810484486345
3.144,0.033296137533739
3.148,0.029731135348589774
3.152,0.07681959904758584
3.156,0.05914231891761791
3.16,0.057671421033678415
3.164,0.07165050933503332
3.168,0.08730669499405491
3.172,0.09878775787432778
3.176,0.12582555230949757
3.18,0.12496178249148435
3.184,0.15785312224780887
3.188,0.14899627440818097
3.192,0.17193871000540337
3.196,0.19242196914123288
3.2,0.20867716068242317
3.204,0.22417044429485528
3.208,0.2222564851732701
3.212,0.23823538506783826
3.216,0.22598745459508351
3.22,0.26028404885674944
3.224,0.28339360351857135
3.228,0.29027977857803045
3.232,0.2877102582412062
3.236,0.3111292760169509
3.24,0.29405516857353375
3.244,0.29261444165000494
3.248,0.29506220108469994
3.252,0.2865751196572314
3.256,0.30020476937320023
3.26,0.29124424159017437
3.264,0.28714088168383545
3.268,0.2680173564835811
3.272,0.2612994916373688
3.276,0.22859597340639237
3.28,0.24162019004611238
3.284,0.22550885639501048
3.288,0.1995735243243406
3.292,0.19519631152388897
3.296,0.1791377356088287
3.3,0.18483455267346782
3.304,0.14223499947912538
3.308,0.14215476506313904
3.312,0.11440586592480055
3.316,0.10680420801643108
3.32,0.10291180844613902
3.324,0.08655432251702909
3.328,0.0779465556174031
3.332,0.0715163310124088
3.336,0.05429013573518951
3.34,0.059956119303399065
3.344,0.04077721389060687
3.348,0.03637163181361295
3.352,0.035231877167513574
3.356,0.02886821230903198
3.36,0.02867437740733531
3.364,0.021633780533560278
3.368,0.019927257550848683
3.372,0.009239876401182545
3.376,-0.0005088836303582707
3.38,-0.006036367229689376
3.384,-0.010079147434649664
3.388,0.02292452524986823
3.392,-0.017921017173360552
3.396,0.015256607275528357
3.4,-0.005606199613922506
3.404,0.013891825662983479
3.408,-0.020456060162088077
3.412,-0.0011439263964527267
3.416,0.015462660528481477
3.42,0.007832522552263904
3.424,-0.0028441861033603397
3.428,-0.019033589952616947
3.432,-0.0129297689084456
3.436,0.014109900340760623
3.44,-0.003321773606671689
3.444,-0.000600857212885901
3.448,0.002920580090826082
3.452,-0.012966901536209474
3.456,0.00411697838027089
3.46,-0.004164760649639854
3.464,0.0029592461268129464
3.468,-0.005764885206070971
3.472,-0.01572024381758906
3.476,-0.004266146217503418
3.48,0.006413004479904736
3.484,0.003944184540334226
3.488,0.0003117493562050639
3.492,0.008982970195227187
3.496,-0.0020348294902143072
3.5,0.0005635053340091229
3.504,-0.004797175631072003
3.508,0.009566506296055405
3.512,0.00291550266783352
3.516,-0.005569431643705766
3.52,-0.014890181068987051
3.524,0.011049734687282495
3.528,-0.007440462785255897
3.532,0.0007210122492935564
3.536,0.023526782032450788
3.54,0.008016780113889297
3.544,0.016115053070232387
3.548,-0.005373906935130036
3.552,0.010724543314667358
3.556,0.00029569862147279635
3.56,0.00371567186537204
3.564,0.02031192916615416
3.568,-0.002598287150289423
3.572,0.0005259693724189421
3.576,-0.00845627532836397
3.58,0.009854156761895286
3.584,-0.004015428729031526
3.588,0.01277159154597203
3.592,-0.012532188152784954
3.596,0.011514668233502907
3.6,0.0024922942337096314
3.604,0.020197044691255172
3.608,0.01800702406171765
3.612,0.01953323610586726
3.616,0.029409105785223835
3.62,0.03486162131370109
3.624,0.06346583752664588
3.628,0.05772409611603553
3.632,0.07965340062150646
3.636,0.10029934016840665
3.64,0.1271869636413546
3.644,0.12402909580957558
3.648,0.1327988719351743
3.652,0.14633171450680538
3.656,0.12789629052106605
3.66,0.13796822938237926
3.664,0.14371268943122512
3.668,0.13422424463701957
3.672,0.11606189584025674
3.676,0.12885518190679668
3.68,0.1093665638326299
3.684,0.09378486695848706
3.688,0.07097375410534468
3.692,0.06484419998192145
3.696,0.05646729652175987
3.7,0.03743603234013885
3.704,0.03496226472870212
3.708,0.014684320853508842
3.712,0.017353896609507383
3.716,0.022972489806064172
3.72,0.020255618394986304
3.724,0.01859126185885312
3.728,0.006326085423363517
3.732,0.002524691584014041
3.736,-0.0031178983954992415
3.74,-0.01724650552136531
3.744,-0.0129608126374939
3.748,-0.001400109680474482
3.752,-0.0009258560870304142
3.756,0.014207933513283649
3.76,0.013193581296174078
3.764,-0.00684125207184297
3.768,0.008194929786582025
3.772,-0.004766798196958276
3.776,0.00681672367320686
3.78,0.007997280505578052
3.784,0.012135034350402639
3.788,-0.006015299559563751
3.792,0.006614980043471004
3.796,-0.028467192957392223
3.8,-0.009944920793347217
3.804,-0.04615447663886183
3.808,-0.07838543600670136
3.812,-0.1341585526258462
3.816,-0.1440817191918256
3.82,-0.1315826740647297
3.824,-0.12618038674136078
3.828,-0.06366390604056016
3.832,0.006625646408619431
3.836,0.12263341537642568
3.84,0.2552108316250512
3.844,0.4230183652038529
3.848,0.6356285059806543
3.852,0.8427364924981686
3.856,0.9657580990025703
3.86,0.9973799165385053
3.864,0.9508040970547136
3.868,0.7826246181676322
3.872,0.5777860463882194
3.876,0.37041968258447017
3.88,0.19777625000287918
3.884,0.05309203803371809
3.888,-0.09431670457027623
3.892,-0.16146628729826737
3.896,-0.2281365536410409
3.9,-0.25122448983993295
3.904,-0.22564332450710975
3.908,-0.18769744260003984
3.912,-0.13067903521261445
3.916,-0.050231993462296246
3.92,-0.02500978992021481
3.924,-0.03590557652263082
3.928,-0.00951572854560785
3.932,0.008135252698993518
3.936,-0.002372523812383079
3.94,0.0133506699197165
3.944,0.011748390051043068
3.948,-0.011928901944758628
3.952,0.0006829787063146848
3.956,-0.0017670855864852395
3.96,-0.010434767683344082
3.964,-0.010165598828068504
3.968,-0.002554353583053153
3.972,0.0004722004436444093
3.976,0.011378156163176188
3.98,0.020987257840715954
3.984,0.018065544713141497
3.988,0.023254613348643826
3.992,0.016399955423042442
3.996,0.02896193454206072
4.0,0.025921842631054577
4.004,0.02812832583824007
4.008,0.057368055877783986
4.012,0.0217103076744105
4.016,0.033704037458180874
4.02,0.06452013921864709
4.024,0.06715111298028148
4.028,0.06539350824672224
4.032,0.08002007185787388
4.036,0.09293202115329321
4.04,0.12346224351918525
4.044,0.13970249876391905
4.048,0.15759145052205384
4.052,0.1393797232416434
4.056,0.15598617984606755
4.06,0.1698392770609999
4.064,0.21159224456459474
4.068,0.2171592941157217
4.072,0.22764270947583728
4.076,0.24235050512381326
4.08,0.2518489766074386
4.084,0.2525113000479174
4.088,0.2789090195635386
4.092,0.2805406447651668
4.096,0.27743689870298993
4.1,0.30050393641782575
4.104,0.2940069760157256
4.108,0.3021596885031316
4.112,0.2983403366459552
4.116,0.3063001043480759
4.12,0.2955171071771787
4.124,0.2786177510190013
4.128,0.28313396915476013
4.132,0.27437894328893786
4.136,0.265486437186156
4.14,0.25907988338786114
4.144,0.22991505955015137
4.148,0.22932151152034352
4.152,0.19138603557568182
4.156,0.1930604958868995
4.16,0.17697625448142448
4.164,0.1796909783256509
4.168,0.14934148032732972
4.172,0.14303676691246506
4.176,0.10588736271074395
4.18,0.10714652936244451
4.184,0.0900619892400894
4.188,0.11191402189229456
4.192,0.06994372682330928
4.196,0.06764399660544686
4.2,0.05933192536968132
4.204,0.03417410914881466
4.208,0.03763727761863578
4.212,0.040566689533999535
4.216,0.03174776506569083
4.22,0.0029587432542071343
4.224,0.01601210903694233
4.228,0.028199731074559135
4.232,0.020716156677912136
4.236,0.02433281846287672
4.24,3.576446208299576e-05
4.244,0.0208102999966099
4.248,0.005985999301124071
4.252,0.021056817892426093
4.256,0.0041070115912157385
4.26,-0.017262946984221386
4.264,0.01100849635831818
4.268,-0.002476855003695728
4.272,-0.0022477979098646903
4.276,-0.013367152237538347
4.28,0.017110617824870382
4.284,-0.004536836813427993
4.288,0.01625857363570816
4.292,-0.0039317653486010025
4.296,-0.008994142568388812
4.3,0.013404798602867628
4.304,-0.0005794059042133329
4.308,-0.000523328390632166
4.312,-0.012734726499347138
4.316,-0.0045174640247349455
4.32,0.004329049497360782
4.324,-0.012961846113591443
4.328,-0.005369696583146582
4.332,-0.0041895832543719334
4.336,0.0006747967532013589
4.34,0.014802802880240983
4.344,-0.002994563747288734
4.348,-0.006901602798492971
4.352,0.02746602727401195
4.356,-0.004330272392788432
4.36,-0.0019054905299188477
4.364,-0.003577667152495134
4.368,-0.002767005539824772
4.372,0.0007783531960548884
4.376,0.009209263527742775
4.38,0.004042367987924452
4.384,0.010775985183603174
4.388,0.01045044055222533
4.392,0.002105661115654378
4.396,0.003802154463456205
4.4,0.01116116815140714
4.404,-0.010976058594981066
4.408,0.02522656248277809
4.412,-0.004697690544437135
4.416,-0.002778663376554594
4.42,-0.010902559026284798
4.424,-0.009848346600065044
4.428,0.012860041705235057
4.432,0.027509722291165477
4.436,0.0015496407757892372
4.44,0.01404758708239524
4.444,0.017293267209051257
4.448,0.030996488333157067
4.452,0.05065396054751964
4.456,0.052833630642118316
4.46,0.04608314939065482
4.464,0.06615156696224186
4.468,0.08077620411451295
4.472,0.08867496986171741
4.476,0.09239268490775521
4.48,0.10916062802726788
4.484,0.1409117294148539
4.488,0.15189838829863103
4.492,0.14423648894700014
4.496,0.15231197404588276
4.5,0.16127046019668978
4.504,0.12808927958897245
4.508,0.13305295965701153
4.512,0.14718595878414764
4.516,0.11732941885808947
4.52,0.08903583818664942
4.524,0.08698364650967849
4.528,0.08175355125355047
4.532,0.032668387738261244
4.536,0.047809100659091296
4.54,0.031826080029544304
4.544,0.010333024714187716
4.548,0.020443152288554648
4.552,0.012665893910375271
4.556,0.009537223531805732
4.56,0.0031596267446844573
4.564,-0.005815381498275672
4.568,-0.011709604612177089
4.572,-0.00512130883668096
4.576,0.009687406374671415
4.58,0.0029850940252690705
4.584,-0.00031050228851404516
4.588,-0.010181199831328529
4.592,-0.0036193275292506423
4.596,0.007436219439524197
4.6,0.005081822923330492
4.604,-0.004754651282013341
4.608,-0.026106005165979208
4.612,-0.00674886176781959
4.616,-0.004851366837868436
4.62,-0.009198867001538543
4.624,-0.00466561096864811
4.628,0.006276274155103791
4.632,-0.006066593764989255
4.636,-0.0047233725827159085
4.64,-0.04707169553336706
4.644,-0.06267201929180054
4.648,-0.11400870654244333
4.652,-0.13191663712112647
4.656,-0.1561278114051138
4.66,-0.12542956338982558
4.664,-0.09801117352037515
4.668,-0.02905258236613635
4.672,0.04582446285467348
4.676,0.16086028037738673
4.68,0.31935783745939356
4.684,0.5252885056486187
4.688,0.7438389269917199
4.692,0.9013056842006552
4.696,0.9875050025352281
4.7,0.9777212182935716
4.704,0.8653816536306567
4.708,0.7029446531211319
4.712,0.4885409209878832
4.716,0.2860232318275757
4.72,0.12231384369480618
4.724,-0.007873529566329154
4.728,-0.11284709616800304
4.732,-0.2017434042151575
4.736,-0.2493666475229556
4.74,-0.2304654049117661
4.744,-0.20255976626105102
4.748,-0.13550222412632362
4.752,-0.0717299919151817
4.756,-0.04040854552183077
4.76,-0.016391803805199154
4.764,0.024736456018187063
4.768,9.960046445207666e-05
4.772,-0.010943701586999803
4.776,-0.0021360584458751143
4.78,0.016577151378595625
4.784,-0.01152468372650603
4.788,-0.005683549600857595
4.792,0.01343412481748974
4.796,0.00031387797172079774
4.8,0.0027469469030307015
4.804,0.015592782487214133
4.808,-0.0010738202380064068
4.812,-0.007090995089770698
4.816,-0.004484070074795694
4.82,0.01738929287667542
4.824,0.016737849522979943
4.828,0.01025860346538889
4.832,0.009153229309286118
4.836,0.022168801976930292
4.84,0.0408065008349749
4.844,0.026738084510336536
4.848,0.03466313633519215
4.852,0.03636162791144651
4.856,0.05238852816958173
4.86,0.06808297838720571
4.864,0.09534842390649331
4.868,0.08671953977019903
4.872,0.09517776467399398
4.876,0.1163019900823516
4.88,0.1273141154225869
4.884,0.1278895766726087
4.888,0.17052686115335777
4.892,0.16149707147353304
4.896,0.17858156337063885
4.9,0.19627916657358932
4.904,0.2086558188095016
4.908,0.23456612320440953
4.912,0.2270036956173089
4.916,0.25359155188872295
4.92,0.2593135197793715
4.924,0.27825889830599543
4.928,0.27571127778149057
4.932,0.28228278106279187
4.936,0.29938434866310515
4.94,0.30015391860267904
4.944,0.29102983827057155
4.948,0.31344544702080784
4.952,0.3061542339243964
4.956,0.29503237453238845
4.96,0.28620098480024914
4.964,0.2878893458813408
4.968,0.2825969712615259
4.972,0.25032567170652026
4.976,0.25900145496797405
4.98,0.24964370328834984
4.984,0.20656600014311347
4.988,0.21833359055469143
4.992,0.2091188997482891
4.996,0.19350933871113296
5.0,0.18117703185777734
5.004,0.15543741867156083
5.008,0.1341506015836261
5.012,0.11281286451667677
5.016,0.12854390704307056
5.02,0.1121186882366648
5.024,0.10497587584723873
5.028,0.07503850304371702
5.032,0.08016141257343883
5.036,0.047782214000849435
5.04,0.04565393507771628
5.044,0.047988022735730135
5.048,0.04655193866375692
5.052,0.050676027516869816
5.056,0.026179845222762496
5.06,0.015294441223103838
5.064,0.010773428586726986
5.068,0.009623834967157976
5.072,0.03577705276627096
5.076,0.018651039746655936
5.08,0.020120370794705175
5.084,0.004864483075690732
5.088,0.005796676298522661
5.092,0.011621224175703758
5.096,-0.001396113627272733
5.1,-3.449026743770336e-05
5.104,-0.004498628915872752
5.108,-0.0027299344705087516
5.112,0.0018354336895437938
5.116,-0.007186027813275719
5.12,0.0036447875055776293
5.124,0.0034396550610704614
5.128,-0.0013461241190954197
5.132,-0.007941227530293707
5.136,0.0012970242265804926
5.14,-0.004866626631247662
5.144,0.0005995925895284058
5.148,0.011078570530445296
5.152,-0.012459023115663648
5.156,0.021785445918448672
5.16,-0.0006891128384225832
5.164,0.0041440251627191255
5.168,-0.0075094284762775455
5.172,0.011434776528128713
5.176,-0.0012474508973153078
5.18,-0.0039350855395340984
5.184,-0.005750955902436332
5.188,-0.002682046549243766
5.192,0.004185446480208094
5.196,0.0017294929676869516
5.2,-0.0003975396397617601
5.204,-0.007113218373839837
5.208,-0.00769043393893797
5.212,-0.004606510640374654
5.216,0.0046070933790213165
5.22,0.006631275239451425
5.224,0.007987672111005914
5.228,1.887413943607414e-05
5.232,0.0038993856357256705
5.236,-0.0015662801749166796
5.24,-0.017209278356841905
5.244,-0.0017827294988282771
5.248,-0.0031065668228190055
5.252,-0.009307819531120184
5.256,-0.003907322803825216
5.26,0.004160790363163794
5.264,-0.006976208700051134
5.268,-0.0005248775763796888
5.272,0.025175476993011647
5.276,-0.0021055687583989204
5.28,0.017650500375337844
5.284,0.014912173259244993
5.288,0.027817942094488086
5.292,0.043815476069523025
5.296,0.04797122818596816
5.3,0.07696651501963679
5.304,0.09899714322595374
5.308,0.10842194842785176
5.312,0.12427998147944871
5.316,0.11294658163736791
5.32,0.13487944856955714
5.324,0.14967160632444054
5.328,0.1579569109078459
5.332,0.16726788294633915
5.336,0.1571187452357478
5.34,0.14854094923810757
5.344,0.15601768201432056
5.348,0.11840650898639159
5.352,0.10078121682300806
5.356,0.09097559439889802
5.36,0.06566138376393377
5.364,0.061833721181810776
5.368,0.03146290200608922
5.372,0.03255354467512035
5.376,0.027500030540755914
5.38,0.03064010646951823
5.384,0.0263188506687004
5.388,0.0010258876367634246
5.392,0.02804640915139007
5.396,0.006336935593434152
5.4,0.005551424662326471
5.404,-0.01418284962572945
5.408,-0.004970518890479558
5.412,0.011237821958143055
5.416,0.0021312279896101
5.42,0.0013257522322800677
5.424,0.00240959124188334
5.428,-0.01435721632731844
5.432,-0.0009265058543844398
5.436,0.014103662769197759
5.44,0.010876903435034554
5.444,-0.0012499776970208397
5.448,0.015621232481080105
5.452,-0.012680129507497577
5.456,-0.010105309542700688
5.46,0.01720903987522197
5.464,0.0013147165604589514
5.468,-0.014790680395458921
5.472,-0.02758475857826919
5.476,-0.0603711093574782
5.48,-0.08342214428586459
5.484,-0.11882443259635123
5.488,-0.14326168521824023
5.492,-0.15414422004466008
5.496,-0.11038504594294316
5.5,-0.06146396924006508
5.504,0.016862485952448027
5.508,0.15227503262000305
5.512,0.3110588953523242
5.516,0.4949357036365496
5.52,0.6859304903374033
5.524,0.8598931040962223
5.528,0.9774713208360803
5.532,0.9962156042229168
5.536,0.8958342953708793
5.54,0.7423455328789231
5.544,0.5038722994622546
5.548,0.3229830908673866
5.552,0.16418248889489462
5.556,0.009123010019961783
5.56,-0.09743420582382324
5.564,-0.17591682115186694
5.568,-0.21942170864040692
5.572,-0.2575977342644811
5.576,-0.2278966180138866
5.58,-0.16854256760958533
5.584,-0.1158553370590011
5.588,-0.06864723692707055
5.592,-0.034324448688796846
5.596,0.0029566264481032997
5.6,-0.005910837158903696
5.604,-1.3796665831843275e-05
5.608,-0.008996394255372499
5.612,0.007314504596219818
5.616,0.02008734401836497
5.62,-0.007142521385494742
5.624,0.019483163139279096
5.628,0.0065071185395316564
5.632,0.003811061291252704
5.636,0.008605898130131545
5.64,0.00968921699866473
5.644,0.025789965649669528
5.648,0.014154627702944688
5.652,0.01644243363518353
5.656,0.009291361596420522
5.66,0.02482192329323233
5.664,0.010293312831202458
5.668,0.024945563343684633
5.672,0.05730235870945877
5.676,0.008717285598522272
5.68,0.04210775545304638
5.684,0.04928309543798304
5.688,0.051888046976494344
5.692,0.06056486962946076
5.696,0.07281899497090003
5.7,0.07953275100733348
5.704,0.0952552948891408
5.708,0.09993916482333025
5.712,0.13755714052328258
5.716,0.12798808423571112
5.72,0.14993265488856825
5.724,0.15170163801272313
5.728,0.18215847230399032
5.732,0.19470925649180917
5.736,0.2060432544676684
5.74,0.2057845509692344
5.744,0.2222657329787657
5.748,0.2596969699415915
5.752,0.24734945704518538
5.756,0.272441906918545
5.76,0.2663428988273905
5.764,0.2941640544723355
5.768,0.28388929723132544
5.772,0.2860527405105406
5.776,0.291657849535616
5.78,0.294446277645682
5.784,0.30331743576002096
5.788,0.2973479605342041
5.792,0.28123288399413626
5.796,0.2856667162051073
5.8,0.2666208390003544
5.804,0.27509389038801213
5.808,0.26619142385632133
5.812,0.24579634166149458
5.816,0.23591630802450336
5.82,0.23714455201907805
5.824,0.2039416833224886
5.828,0.1816485814100982
5.832,0.18233574575330766
5.836,0.15073681704274702
5.84,0.1457158462534642
5.844,0.12798119590460505
5.848,0.11362560719969209
5.852,0.10544833187686002
5.856,0.10497309250118923
5.86,0.09583990055298677
5.864,0.083681404247714
5.868,0.06826916643543655
5.872,0.05366983237147609
5.876,0.024854248346133062
5.88,0.04511424018369919
5.884,0.01243350477169287
5.888,0.010522189157722815
5.892,0.02335755416972582
5.896,0.02347303634430615
5.9,0.012747245173675703
5.904,0.029564653455460534
5.908,0.016245552193261546
5.912,0.00695518039015578
5.916,0.021495136165168537
5.92,0.021776098921694263
5.924,0.010009718458124664
5.928,-0.0038827493944298876
5.932,-0.0024560981824490223
5.936,-0.012084181233845635
5.94,0.0014281994728423332
5.944,-0.009069829578033086
5.948,-0.00219295479425553
5.952,0.0034430459583767053
5.956,-0.01920293121507006
5.96,-0.012160033029784143
5.964,-0.004711411038603235
5.968,-0.00025989738201977555
5.972,-0.004742936895544741
5.976,-0.002561384758915481
5.98,-0.0069570352562164685
5.984,-0.014418052436432212
5.988,-0.005292841842453055
5.992,-0.0020925877284134245
5.996,-0.0030761165605173463
6.0,0.0011375781353361513
6.004,0.004202710498772845
6.008,0.006826858136643469
6.012,-0.006328861452489916
6.016,-0.015753393209046625
6.02,0.012719092267745721
6.024,0.0038565850913843576
6.028,-0.009545188102957475
6.032,0.002778013615503535
6.036,0.010680589512301457
6.04,0.017292191188101557
6.044,0.00250638464699152
6.048,0.010596894739919687
6.052,-0.012095888227937
6.056,-0.0003589173294105157
6.06,-0.003349997223239528
6.064,0.003425916624403657
6.068,0.016112383851442584
6.072,0.002499847647346124
6.076,-0.009374866091571739
6.08,-0.012630098600175263
6.084,0.01646659393688351
6.088,0.005155523672359536
6.092,0.004515114770350411
6.096,-0.0033721105074945587
6.1,0.0027994321310242033
6.104,-0.009651401140817542
6.108,0.004256102433822626
6.112,-0.011089583673843675
6.116,-0.0024904762881689862
6.12,-0.004631700258096869
6.124,-0.02971774640418817
6.128,0.0009558870720810693
6.132,-0.0023101329732556596
6.136,0.007724228110040627
6.14,0.014114744542419686
6.144,0.03738976895860688
6.148,0.029908728891458722
6.152,0.03902323782655642
6.156,0.0511570607409543
6.16,0.06702671112843762
6.164,0.07627216687128885
6.168,0.0888260146552454
6.172,0.10763690861721334
6.176,0.09025384755184662
6.18,0.1480575475927227
6.184,0.1535386928083689
6.188,0.14738440974393163
6.192,0.135198986652845
6.196,0.16178393307178557
6.2,0.13930177858686704
6.204,0.14460682361024474
6.208,0.1164474258848579
6.212,0.1392324510803534
6.216,0.08873502203544642
6.22,0.08936718541530846
6.224,0.05308136317200184
6.228,0.0602732744641336
6.232,0.044057943758866486
6.236,0.04885925093002605
6.24,0.024099851102585657
6.244,0.0322895116891798
6.248,0.004779898611634874
6.252,0.007701733096692412
6.256,0.0045641634614366905
6.26,0.009736200213616857
6.264,0.0067845353816401496
6.268,0.009182767260324892
6.272,0.003876537671599288
6.276,0.0073389402083483
6.28,-0.0085536713718344
6.284,0.004130526013740279
6.288,0.016216983583141407
6.292,-0.016726767058405756
6.296,0.0049287416467828785
6.3,0.0067876613723184655
6.304,0.014621402188511651
6.308,0.00726214751719283
6.312,0.0009865137259805353
6.316,0.004206410341101671
6.32,-0.007758530632769972
6.324,-0.005370942661508155
6.328,-0.01799562311538542
6.332,0.002576975042124466
6.336,-0.02325842836830623
6.34,-0.0625656402231471
6.344,-0.08477700534720362
6.348,-0.11031120580551851
6.352,-0.13396317899974372
6.356,-0.15126173392514702
6.36,-0.14277878440615174
6.364,-0.049683441268943355
6.368,0.0213617227210234
6.372,0.1505565593106889
6.376,0.3049933995172427
6.38,0.49386958404231357
6.384,0.704120433483639
6.388,0.8805237023595105
6.392,0.9980691080555604
6.396,1.0043930579743174
6.4,0.9096631053390122
6.404,0.7216693877180599
6.408,0.5038735894422861
6.412,0.3440811048278703
6.416,0.1512871458617265
6.42,0.025376757522635577
6.424,-0.1041431942191679
6.428,-0.17477425523622162
6.432,-0.2601880614330544
6.436,-0.24830965460734078
6.44,-0.21351495352621047
6.444,-0.15228188407875298
6.448,-0.08781082284581995
6.452,-0.0635683520671552
6.456,-0.017234750403976457
6.46,0.0032433767402291983
6.464,0.02080867156821238
6.468,0.006788136104650917
6.472,-0.004017306956818058
6.476,-0.01172584259694621
6.48,0.019634990564589498
6.484,0.009123415653160742
6.488,0.0020362077922372896
6.492,-0.01331001447271375
6.496,-0.005638081773488056
6.5,0.010956399128414512
6.504,0.009369342217993735
6.508,-0.012187338317282737
6.512,0.015347220412082144
6.516,-0.004570945713885397
6.52,0.027143777507525384
6.524,0.01863129498825549
6.528,0.015361460208980045
6.532,0.0339123391999032
6.536,0.03218320750065363
6.54,0.047212513724247195
6.544,0.040812229200395476
6.548,0.048214906768387404
6.552,0.05160612957565176
6.556,0.06556004740664964
6.56,0.08923559356411868
6.564,0.07740686428731244
6.568,0.09992629453078962
6.572,0.0964498561266387
6.576,0.09713015189708644
6.58,0.13306896322084943
6.584,0.148444478284781
6.588,0.15780814047437983
6.592,0.15839091757715126
6.596,0.19094202643561778
6.6,0.20503202987113406
6.604,0.20767482746152263
6.608,0.2167385022559488
6.612,0.24076631507208335
6.616,0.26193224803676773
6.62,0.2705748449449684
6.624,0.2673066878434223
6.628,0.28571906626328647
6.632,0.29983329889187343
6.636,0.28410198172416806
6.64,0.2994893711253363
6.644,0.3133883183948172
6.648,0.28645990185415426
6.652,0.3080799990595818
6.656,0.30818148225910175
6.66,0.2834675088998567
6.664,0.27431211534879674
6.668,0.2786242805087724
6.672,0.2556512548111341
6.676,0.2220569109134654
6.68,0.23173382622467445
6.684,0.22382659766545288
6.688,0.21240264033507328
6.692,0.18176118461418841
6.696,0.1733213344675448
6.7,0.17131370682267785
6.704,0.1467144091215099
6.708,0.11819328244360763
6.712,0.13255079990360444
6.716,0.1053632874640706
6.72,0.10646884347706037
6.724,0.07044032640688291
6.728,0.07285153143613181
6.732,0.0696758922507662
6.736,0.0550791762727188
6.74,0.03633612076726439
6.744,0.01733223416347326
6.748,0.05024960417184995
6.752,0.03205214290137154
6.756,0.036481996663794314
6.76,0.029975543333050664
6.764,0.023107914259038517
6.768,0.010895023561564
6.772,0.016436959205379215
6.776,0.023703170451093714
6.78,0.008402682016086176
6.784,0.025092851580883535
6.788,-0.01015037783108022
6.792,-0.012232067824311842
6.796,0.01290083161982426
6.8,-0.005825519121973578
6.804,0.02226876157806677
6.808,0.01479056093951749
6.812,0.016962945337613854
6.816,0.009673160903376301
6.82,-0.00858807252098774
6.824,-0.01612095678616409
6.828,0.015306254280878739
6.832,-0.014733162195312087
6.836,0.016042673971126256
6.84,0.006838329132251875
6.844,-0.0006588889489572079
6.848,0.00449553897026918
6.852,0.004706932049849601
6.856,-0.0019854618743148323
6.86,0.01428435926404177
6.864,0.013933489381599641
6.868,0.0015704329166860798
6.872,-0.005989906435872401
6.876,0.013067343832860208
6.88,-0.020218426118654157
6.884,0.0044475718447300775
6.888,0.007409156112436859
6.892,-0.008259683658237288
6.896,0.009782127601139903
6.9,-0.0001816237136652219
6.904,-0.005306764776289637
6.908,0.009900613937330691
6.912,-0.01038900554861298
6.916,0.009487174667340718
6.92,-0.018505666482943467
6.924,0.004985689704716776
6.928,0.0037900203469106554
6.932,-0.00025318589003193136
6.936,0.011591045301209071
6.94,0.010424359782880319
6.944,0.026493831147869407
6.948,0.027693666274772443
6.952,0.03435896723003165
6.956,0.04218395865834537
6.96,0.045653700604092184
6.964,0.059977394363234154
6.968,0.07926814045694286
6.972,0.08949624326446531
6.976,0.11676560496662568
6.98,0.12019400938600806
6.984,0.1349778906009533
6.988,0.12670013945728306
6.992,0.15654245069609898
6.996,0.14408423578183194
7.0,0.1384476339686234
7.004,0.16058403411890357
7.008,0.14297164629616851
7.012,0.13485441907916312
7.016,0.11668418116065575
7.02,0.09706198211269372
7.024,0.08067176320721484
7.028,0.07708943738835539
7.032,0.06740527815487368
7.036,0.04355424167824846
7.04,0.05473699474611968
7.044,0.0235161606232434
7.048,0.004679621605389829
7.052,-0.003957502366691096
7.056,-0.007676494663503224
7.06,0.0020864264292833733
7.064,0.001784222227699219
7.068,0.009463993813824739
7.072,0.001366569551827115
7.076,0.009442892165016951
7.08,0.0010496039859459567
7.084,0.000483706180138128
7.088,-0.0055780755993853955
7.092,0.014334513119189957
7.096,-0.015256480521153824
7.1,0.0030436541517542726
7.104,-0.0018010260206351618
7.108,0.007824360614562374
7.112,-0.00021072751170206192
7.116,5.36963540199907e-05
7.12,-0.0028294014790512688
7.124,0.013270416970489888
7.128,-0.0022588536318708845
7.132,0.01299236391660962
7.136,-0.01405269842901298
7.14,-0.03554629237531489
7.144,-0.0664043107085005
7.148,-0.09477753355109372
7.152,-0.1378082148908253
7.156,-0.14491777219037072
7.16,-0.1342440908051674
7.164,-0.09043080918811071
7.168,-0.02311439227358697
7.172,0.0713538943912522
7.176,0.19503997924479474
7.18,0.3747925359298069
7.184,0.5599342920543902
7.188,0.7829345434897761
7.192,0.9192005060725624
7.196,1.0064533085486442
7.2,0.9602837738234591
7.204,0.8536224993580691
7.208,0.6426579965239249
7.212,0.4479473958420438
7.216,0.25232823857393705
7.22,0.1024847726098644
7.224,-0.032145500507713386
7.228,-0.14061989456406127
7.232,-0.21008664249250766
7.236,-0.22846941433709017
7.24,-0.23217589302060143
7.244,-0.20708477408750972
7.248,-0.12430653091489359
7.252,-0.08906659518687733
7.256,-0.03294036436820994
7.26,-0.011663048548096381
7.264,0.00012514580684545688
7.268,0.01702480066588794
7.272,-0.008160848717292606
7.276,0.006856362184809704
7.28,0.013711925176888963
7.284,-0.004953691640434201
7.288,-0.00553878963378155
7.292,-0.0004048368256683167
7.296,0.006398370761536196
7.3,-0.010105841540759677
7.304,0.010556584196341494
7.308,-0.007765854620449283
7.312,0.020798875908476205
7.316,0.014867384089680755
7.32,0.031090285529133108
7.324,0.02129284800419404
7.328,0.014675243011350366
7.332,0.013382299889689635
7.336,0.027989991843636708
7.34,0.030173039376761603
7.344,0.04790806249061423
7.348,0.03307804831601501
7.352,0.06968040922534369
7.356,0.07015007599530779
7.36,0.06414450984398998
7.364,0.09379080448922542
7.368,0.0784622319795859
7.372,0.09965266865100224
7.376,0.09691170859333827
7.38,0.14093058126575408
7.384,0.11939827859222293
7.388,0.13538109129781353
7.392,0.15772305591493085
7.396,0.1917938803790116
7.4,0.20266120856065178
7.404,0.20872733431789614
7.408,0.23174057536561618
7.412,0.23388315808150487
7.416,0.25197775922671434
7.42,0.27600881734137694
7.424,0.2675857063960734
7.428,0.27158534853662414
7.432,0.2916210411110276
7.436,0.3003182175381892
7.44,0.2982357582246039
7.444,0.30951872666424257
7.448,0.2979188812587454
7.452,0.2997378726592852
7.456,0.2988515628755629
7.46,0.29279910173227747
7.464,0.2991516908988077
7.468,0.27821001870945533
7.472,0.2615278135283101
7.476,0.25863284486464844
7.48,0.2511552576514333
7.484,0.23565532379928272
7.488,0.22129035099367395
7.492,0.18486484560170566
7.496,0.16042262237817365
7.5,0.1835578516216186
7.504,0.16078809183230364
7.508,0.14207941859687445
7.512,0.1355800296487572
7.516,0.1348208282607879
7.52,0.11726359284804136
7.524,0.10107872330767756
7.528,0.0717210552612638
7.532,0.0629906941676594
7.536,0.03751899353940914
7.54,0.05939514600973065
7.544,0.056659185618878595
7.548,0.05079436178237386
7.552,0.03973404692974123
7.556,0.026246753650156066
7.56,0.017620442773533314
7.564,0.011097726342515138
7.568,0.014360387576038396
7.572,0.0033575646900049078
7.576,0.02827870692779099
7.58,-0.004332408277192692
7.584,0.005031589887873257
7.588,-0.013756936034021732
7.592,0.007423963514088621
7.596,0.0034997632024464237
7.6,-0.0008008770879811122
7.604,-0.0071687936087776565
7.608,0.0016985133105850566
7.612,-0.004155123532575786
7.616,-0.00038166071460664884
7.62,0.02032497924989923
7.624,0.0022890608999493567
7.628,0.005754637596951053
7.632,-0.004326839454632651
7.636,-0.007608754411846335
7.64,-5.6033624796540524e-05
7.644,0.025166276719769037
7.648,-0.002781906378724118
7.652,0.0036811243288714865
7.656,-0.008236062401837083
7.66,-0.027518531986975615
7.664,-0.007874078285351272
7.668,0.02382416617326363
7.672,0.0059658535402253784
7.676,0.01641756154967182
7.68,-0.003471451040646687
7.684,-0.023564294059333947
7.688,-0.011084222810868134
7.692,0.003972477962994801
7.696,0.0023782722931713273
7.7,-0.00010145543837518847
7.704,-0.005297808409334782
7.708,0.009406017407580656
7.712,-0.004996202658296113
7.716,0.0031115708610847392
7.72,0.0020166607352414133
7.724,-0.0035675677859430465
7.728,-0.008600643268434094
7.732,-0.003899125612801878
7.736,0.019379026325416472
7.74,0.012200900382196856
7.744,0.011960879312140396
7.748,-0.005069257553938529
7.752,-0.01004183948928334
7.756,0.017517794518464663
7.76,0.018702588182272578
7.764,0.01523840926190523
7.768,0.015704842825779327
7.772,0.011845266963239618
7.776,0.04389824829815225
7.78,0.057524950500923475
7.784,0.050909720281550885
7.788,0.06344186589003008
7.792,0.09773003958806312
7.796,0.09342136263461737
7.8,0.13166953078873916
7.804,0.12551837300393376
7.808,0.1333384846640433
7.812,0.14537899614631436
7.816,0.14535094292855577
7.82,0.16101257422267787
7.824,0.15534516510724966
7.828,0.15055406625305984
7.832,0.13165507214589534
7.836,0.11303042468272415
7.84,0.10374451908964273
7.844,0.08511182167459282
7.848,0.08963974040372434
7.852,0.07133042622709983
7.856,0.04795029469448913
7.86,0.028699276271776396
7.864,0.044157480734943785
7.868,0.022587449219839757
7.872,0.013966028004224765
7.876,0.026203621431255333
7.88,0.0022195097110296394
7.884,0.001687292141226222
7.888,0.000859481458850004
7.892,-0.01116083209154832
7.896,0.004394417770069784
7.9,-0.0068794310442423234
7.904,-0.005271048245916068
7.908,-0.006795119642873316
7.912,-0.005731884067567208
7.916,-0.008313781045374245
7.92,0.002512017310119204
7.924,-0.0015354118858168242
7.928,0.0004900012028810024
7.932,0.023540003017404342
7.936,-0.0015707005295855887
7.94,0.005961922284767551
7.944,0.006805275263589041
7.948,-0.002035906681855289
7.952,-0.0016730386839679734
7.956,-0.011572517741878825
7.96,-0.024777349630663796
7.964,-0.05782296517477781
7.968,-0.09071654133849488
7.972,-0.12027417988072682
7.976,-0.16303612062078662
7.98,-0.1277563612142611
7.984,-0.09192259560874216
7.988,-0.05526294419746737
7.992,0.03227013832444602
7.996,0.14892657056518502
8.0,0.27417750330984547
8.004,0.4825018268647905
8.008,0.6728572222496798
8.012,0.8836541714647839
8.016,0.9755015010213863
8.02,1.001706618548378
8.024,0.8998312759743751
8.028,0.7533651490803455
8.032,0.5214801020824887
8.036,0.339723039875099
8.04,0.164199626199301
8.044,0.02304994898278115
8.048,-0.09158929802238581
8.052,-0.1877004493161278
8.056,-0.26009264939446797
8.06,-0.2340470822722492
8.064,-0.2196329636944691
8.068,-0.14807651382138565
8.072,-0.09758595506697419
8.076,-0.04241684014464104
8.08,-0.016825420176271054
8.084,-0.034140391457492744
8.088,0.0033134468680645073
8.092,-0.003780396337786577
8.096,0.012202051523438512
8.1,0.006887168808254919
8.104,0.00735519498396231
8.108,-0.000993777918904973
8.112,-0.006896794857904084
8.116,-0.001473991830905423
8.12,-0.014366403801008782
8.124,-0.0013109654218667428
8.128,-0.008872525144354364
8.132,-0.007176537759267659
8.136,0.010095478031905341
8.14,0.016345881342003023
8.144,0.013157616773156416
8.148,0.01140696974185151
8.152,0.010345303158175211
8.156,0.02063441664191557
8.16,0.020190688329454733
8.164,0.03306622718918305
8.168,0.024487706650630978
8.172,0.05349768329888711
8.176,0.04840678871566199
8.18,0.06627106755438494
8.184,0.0806657415717328
8.188,0.0852104079909652
8.192,0.10089628805881586
8.196,0.08400955889963088
8.2,0.11225728167203755
8.204,0.1413846382141434
8.208,0.14916881728980577
8.212,0.1767125138581369
8.216,0.18970443616303967
8.22,0.19020381290916674
8.224,0.1991660939845625
8.228,0.20631298329965495
8.232,0.22487778362605607
8.236,0.2386079405876105
8.24,0.2489183183669025
8.244,0.2567298480462348
8.248,0.27970155036599614
8.252,0.30096050000536434
8.256,0.3000190174674473
8.26,0.29241414846707386
8.264,0.3088967205705065
8.268,0.3034478726003778
8.272,0.29888267783832206
8.276,0.2956635105570657
8.28,0.2902464810031254
8.284,0.2925379525151054
8.288,0.27955182252695393
8.292,0.26148971598355614
8.296,0.2502838075996671
8.3,0.24923685682587163
8.304,0.23763799516316714
8.308,0.21665098150222808
8.312,0.19436152826139097
8.316,0.20376720824722727
8.32,0.1870965293436098
8.324,0.14235450620419007
8.328,0.1613786430908819
8.332,0.13203734283632465
8.336,0.12269302137631008
8.34,0.11947299689629091
8.344,0.11263247130397747
8.348,0.09493550017861987
8.352,0.07694363896391165
8.356,0.05125340307792544
8.36,0.03607909803546108
8.364,0.0572989468459219
8.368,0.054933581922147035
8.372,0.027147271889157838
8.376,0.027116757764577924
8.38,0.019452670753890126
8.384,0.015032407950527026
8.388,0.02804555433812274
8.392,0.016425280009692848
8.396,0.009359955140844797
8.4,0.03604726666679196
8.404,-0.006693190199366799
8.408,0.011619760409318423
8.412,-0.005592785396043945
8.416,0.0023059371097523145
8.42,0.004541463579499828
8.424,0.010835966865347222
8.428,-0.0007540261245032847
8.432,-0.002234601511105789
8.436,-0.0016896817280056342
8.44,-0.009959847953325862
8.444,0.006959296944839526
8.448,0.003292296964573118
8.452,0.0047099595205363
8.456,-0.00042913988924361303
8.46,-0.0017321192373374412
8.464,0.011900314278863516
8.468,0.010323085603764966
8.472,0.014224235837646272
8.476,0.0037808181179072907
8.48,0.01356589120391815
8.484,-0.004132929719438032
8.488,-0.001988814104080647
8.492,0.011964843181120337
8.496,0.008443886496484903
8.5,-0.002897744914045039
8.504,-0.010457792090344541
8.508,-0.0020360554306244768
8.512,-0.006845565654114631
8.516,0.017248598177073804
8.52,0.0076058350344154054
8.524,-0.007649436522267354
8.528,-0.010431212553494969
8.532,-0.007747272023194645
8.536,-0.00552053060368346
8.54,-0.001541922806564856
8.544,0.011370907814706094
8.548,-0.009268949798431434
8.552,0.023574226865836035
8.556,-0.008299241481956024
8.56,-0.012244798247189652
8.564,0.019811754844750153
8.568,0.017742352580855665
8.572,0.005005620590712707
8.576,0.013848650892298454
8.58,0.018439810026505913
8.584,0.021435535407788437
8.588,0.014345526577438806
8.592,0.011406522853649723
8.596,0.03839098992965789
8.6,0.07718990157387462
8.604,0.09106494931883202
8.608,0.08420305889758159
8.612,0.0917492124444746
8.616,0.11805256807014708
8.62,0.13220772743821074
8.624,0.1441550421788291
8.628,0.12026844035606457
8.632,0.18102727481416692
8.636,0.16091168020498173
8.64,0.14396134711679887
8.644,0.13159845385072466
8.648,0.13851475061334878
8.652,0.12118135837180148
8.656,0.103278451375514
8.66,0.09244682435574779
8.664,0.07238872344834396
8.668,0.06397514819736132
8.672,0.05492577346638615
8.676,0.04036431351355224
8.68,0.0308021413383989
8.684,0.03446277955833512
8.688,-0.0012363237056787265
8.692,0.0023271770090495577
8.696,0.0072917925378314895
8.7,-0.002629597316729927
8.704,-0.0009360259188948596
8.708,0.01478683344140531
8.712,-0.0003146547053409401
8.716,-0.01758725816246812
8.72,-0.0038213009211464566
8.724,0.0008159997072231866
8.728,0.0005273650126583701
8.732,0.0056310182138837725
8.736,0.004781163381467704
8.74,-0.0013691450878494638
8.744,-0.011921300054497484
8.748,-0.004410260815660445
8.752,-0.006246390665690568
8.756,-0.0029539355125400082
8.76,0.006470946434674888
8.764,0.0024452538106247076
8.768,0.003320693442545413
8.772,-0.016761983525575844
8.776,-0.013833812215957558
8.78,-0.048405701795930435
8.784,-0.088391105157557
8.788,-0.1175554381228915
8.792,-0.15125350985940825
8.796,-0.16212665054203051
8.8,-0.11496668661009748
8.804,-0.0421688289631623
8.808,0.036553311637700196
8.812,0.1503948962621986
8.816,0.2966196404484575
8.82,0.474431169938521
8.824,0.7121048441565423
8.828,0.8746064237056147
8.832,0.9797294640380666
8.836,0.9811908138260642
8.84,0.8995299555119048
8.844,0.7198252558402038
8.848,0.49553980642066886
8.852,0.320614531923577
8.856,0.14073203868820225
8.86,9.000584938711077e-05
8.864,-0.10710991779135753
8.868,-0.19613031416843696
8.872,-0.2505937494075957
8.876,-0.23563436781004204
8.88,-0.21206081340398678
8.884,-0.14735680476478008
8.888,-0.09266962160809923
8.892,-0.045082369136539964
8.896,-0.04314607618539171
8.9,-0.01716132930040174
8.904,0.003250071992906261
8.908,-0.012953366024669571
8.912,0.004337679854160336
8.916,-0.012895692194888366
8.92,0.0015281465992058169
8.924,0.017875324461247632
8.928,0.01003376608053636
8.932,-0.015579598222662526
8.936,0.012206561561068861
8.94,0.022925937167878475
8.944,0.03387485654474833
8.948,0.012116040419884119
8.952,-0.004515648753840123
8.956,0.015588550346378377
8.96,0.029716208065095298
8.964,0.014853961408302018
8.968,0.03063597952196769
8.972,0.015857304352084038
8.976,0.032650767685362486
8.98,0.009385949339741552
8.984,0.03086484914092477
8.988,0.04717080431174965
8.992,0.0512767519262874
8.996,0.05042343160579482
9.0,0.06780665695663941
9.004,0.08632552256486521
9.008,0.09322464506274769
9.012,0.10654678945653971
9.016,0.12583923747559067
9.02,0.12831852733269883
9.024,0.15911516400979855
9.028,0.1498183376161013
9.032,0.19344372734865423
9.036,0.1998429649555043
9.04,0.1996123546720533
9.044,0.21445138528009833
9.048,0.23308946650077184
9.052,0.24998052035655588
9.056,0.26699537015243324
9.06,0.25358155949220224
9.064,0.28099067814113515
9.068,0.26359881310541433
9.072,0.2895084646733349
9.076,0.31058649839206065
9.08,0.2847956109479866
9.084,0.284006388353394
9.088,0.30131687450413847
9.092,0.3101934874190903
9.096,0.2949366858694279
9.1,0.26624094133743853
9.104,0.26042035838075844
9.108,0.26870103305360515
9.112,0.24508125050295954
9.116,0.246258022120713
9.12,0.23393812783315618
9.124,0.21344662975621037
9.128,0.2223480066696702
9.132,0.19565926369618072
9.136,0.18732166833374314
9.14,0.169946193231532
9.144,0.14502776125782058
9.148,0.13077655199462923
9.152,0.11647152163397127
9.156,0.11362707727089957
9.16,0.08840716484669471
9.164,0.10104480789200766
9.168,0.06604947675379227
9.172,0.06621793864995919
9.176,0.05320211099164351
9.18,0.04324711906465406
9.184,0.06255743735713012
9.188,0.030302657966858635
9.192,0.02624065065440248
9.196,0.0179256281126089
9.2,0.020885967701442985
9.204,0.015943610161780534
9.208,0.00276041834656977
9.212,0.007164364153676704
9.216,0.015364700453741352
9.22,0.017750964033326003
9.224,0.0062403014099883655
9.228,0.0053718486813854145
9.232,0.0001766456395251464
9.236,-0.0020450913351312983
9.24,-0.006866526638861987
9.244,-0.013757165882372899
9.248,-0.005627944113008629
9.252,0.01011155219507711
9.256,-0.0034280183394034564
9.26,-0.002842223566739407
9.264,-0.0031899350431584712
9.268,0.012794620026345169
9.272,-0.009025680234962882
9.276,0.0029610554476425734
9.28,-0.0005449399934615116
9.284,0.000781093348516707
9.288,0.0025172681027229543
9.292,0.0006248141190498678
9.296,0.007968448921275871
9.3,-0.00026491510809039667
9.304,0.017464374279525186
9.308,0.0004615473743858813
9.312,-0.01701829576926959
9.316,0.006403830485988179
9.32,0.003953497371463516
9.324,0.00038232162975089295
9.328,-0.0024931071136613924
9.332,-0.020961788399917344
9.336,-0.01914282397387173
9.34,0.017037274485190285
9.344,-0.004908251465631603
9.348,0.011211284905575098
9.352,-0.01354027518391742
9.356,-0.006581941356356104
9.36,0.012699741037516588
9.364,0.007744519416095543
9.368,0.018053313199830296
9.372,0.017725050253261234
9.376,0.022453870248135548
9.38,0.026038058767144358
9.384,0.030908971859193786
9.388,0.0685249629496293
9.392,0.08323497203652067
9.396,0.07125341577710018
9.4,0.08511845777712326
9.404,0.10691966252146665
9.408,0.12694464770114944
9.412,0.1329354643897966
9.416,0.14826493997584708
9.42,0.14798153367123656
9.424,0.14883202907991985
9.428,0.17179956243034544
9.432,0.13646787561732052
9.436,0.14897247782360976
9.44,0.13535057186676286
9.444,0.11247692729465736
9.448,0.07381093613146182
9.452,0.07890155957522171
9.456,0.0595386042633853
9.46,0.052095714515364246
9.464,0.02995131724898909
9.468,0.03849424657484396
9.472,0.03283070247508493
9.476,0.02834245284950153
9.48,0.007925509010066861
9.484,-0.0025117288493500985
9.488,0.008937296732745735
9.492,0.021104068812539685
9.496,0.002951596335280364
9.5,0.005925149873052709
9.504,-0.001500400482215687
9.508,-0.004533833109556875
9.512,0.0068708356817261
9.516,-0.0008991675132546883
9.52,0.004123480051938592
9.524,0.005122071292900128
9.528,0.003499542984025478
9.532,0.00559065171017247
9.536,-0.00852579040081691
9.54,-0.009148660440028057
9.544,-0.0004844298861319916
9.548,-0.0004528367702822199
9.552,-0.006248951905157574
9.556,-0.0009388551329229662
9.56,-0.00023265944778178178
9.564,-0.010201147572534276
9.568,-0.03045434423645757
9.572,-0.08981306339414591
9.576,-0.12383022366079086
9.58,-0.1422402552910678
9.584,-0.1447143428965654
9.588,-0.12604933467732357
9.592,-0.07933953043555741
9.596,-0.0010208189362236179
9.6,0.11107853094374456
9.604,0.2324174170861013
9.608,0.44655168961795855
9.612,0.6255658928987453
9.616,0.8290729610449923
9.62,0.9505744954026859
9.624,1.0049763629231412
9.628,0.9348237857428977
9.632,0.7884278568461244
9.636,0.5775004226269894
9.64,0.3919050698745895
9.644,0.1832027969799998
9.648,0.06117805616141499
9.652,-0.0662551395400944
9.656,-0.17182861778107972
9.66,-0.2049861352791631
9.664,-0.22780814023357046
9.668,-0.2463036000386485
9.672,-0.17316485075209345
9.676,-0.10828476893168365
9.68,-0.060282906018535115
9.684,-0.015664437738362534
9.688,0.0007211588638456265
9.692,-0.0013373991770323987
9.696,0.02201541141292657
9.7,0.009764478269035466
9.704,-0.0026310980791483334
9.708,-0.004289408760884413
9.712,0.014051475694699082
9.716,-0.0058384865459338645
9.72,-0.0014149970540718892
9.724,0.0010229023512574914
9.728,0.007885628250072461
9.732,0.0035124906036852572
9.736,-0.006359663150163748
9.74,0.020080542672877295
9.744,0.006398046394935476
9.748,0.033005937821479495
9.752,0.01864627875068196
9.756,0.031569013601046275
9.76,0.029043946376294524
9.764,0.0403294474313495
9.768,0.03798702971730094
9.772,0.04045422316955909
9.776,0.055615694492690264
9.78,0.07692619508165974
9.784,0.05758450765863008
9.788,0.0772989603399408
9.792,0.07921930699027464
9.796,0.09509591756854953
9.8,0.10202959222986745
9.804,0.09235921699843236
9.808,0.124944256561342
9.812,0.1505342642691091
9.816,0.14694207051871136
9.82,0.17817984358208966
9.824,0.18534140934699644
9.828,0.1961042687130069
9.832,0.22137592705878806
9.836,0.23300686298218348
9.84,0.24365065591335106
9.844,0.26201178870532493
9.848,0.2652443424154542
9.852,0.2568847929143635
9.856,0.278246518975886
9.86,0.27110020000620794
9.864,0.301122782159922
9.868,0.3071028542979531
9.872,0.3092681960829969
9.876,0.30453835652350114
9.88,0.3072127144926674
9.884,0.27778365416459944
9.888,0.2866959383464613
9.892,0.26615837921154933
9.896,0.2677119162282222
9.9,0.2770600645026831
9.904,0.26023013266194217
9.908,0.24331686806592018
9.912,0.22147760928111201
9.916,0.1993724313533105
9.92,0.19681750188611946
9.924,0.19151983628461117
9.928,0.1699960804531113
9.932,0.1357194537950479
9.936,0.1386542039583983
9.94,0.1049967886107236
9.944,0.11929965601002078
9.948,0.09215416356535965
9.952,0.07544850567847
9.956,0.08527218011229253
9.96,0.07294567493781923
9.964,0.060790334091057024
9.968,0.07234633626252022
9.972,0.049569495525809186
9.976,0.030354629437456523
9.98,0.03633325273759318
9.984,0.02332070867146714
9.988,0.034538829473603073
9.992,0.020963806291002775
9.996,0.01877170053035003
10.0,-0.002153978765611074
10.004,0.015128054777459647
10.008,0.016567870989871385
10.012,0.009826384932692112
10.016,0.02106823309872404
10.02,0.031091144490099126
10.024,0.030339305873270103
10.028,0.020077178406469942
10.032,0.03541901444514659
10.036,0.03753684207179288
10.04,0.048309828130541736
10.044,0.05146131667865219
10.048,0.050779714745328906
10.052,0.05472500160389766
10.056,0.06427515760676614
10.06,0.07763094583299798
10.064,0.07520581790074277
10.068,0.09108269849895843
10.072,0.09262634141912442
10.076,0.10070989906400533
10.08,0.10388132765414437
10.084,0.11027756833179633
10.088,0.0875688939565858
10.092,0.11002461446745207
10.096,0.12018021229366298
10.1,0.12642963064421173
10.104,0.10916945886483254
10.108,0.12788205599548844
10.112,0.12648567431404054
10.116,0.14862297784134507
10.12,0.12069113550968662
10.124,0.13127542338744738
10.128,0.12525851723472722
10.132,0.14919952472108805
10.136,0.17477196197412867
10.14,0.1560617725122862
10.144,0.16187835066368023
10.148,0.17072424429286537
10.152,0.16840369300333918
10.156,0.17756254575009658
10.16,0.18215136669971846
10.164,0.17409277807210924
10.168,0.1859208841730205
10.172,0.1985909768036828
10.176,0.20477102072057507
10.18,0.2127974723158947
10.184,0.2075244081451472
10.188,0.21214240028679493
10.192,0.2205980712182865
10.196,0.21181633098859973
10.2,0.21631315325081663
10.204,0.22668104229279137
10.208,0.22093287731511138
10.212,0.24418014559878548
10.216,0.25791114837617357
10.22,0.2487350963924507
10.224,0.26993177449750916
10.228,0.2705577988751613
10.232,0.2796071491998544
10.236,0.3249362435486014
10.24,0.31054047066492824
10.244,0.32525034535530095
10.248,0.3585157003299776
10.252,0.3776002723200372
10.256,0.3995994462355284
10.26,0.42958773420131546
10.264,0.41626489520311266
10.268,0.42979435840150904
10.272,0.45973767354704087
10.276,0.4573305992772484
10.28,0.4564215585336464
10.284,0.4394535493393191
10.288,0.45050466903779063
10.292,0.43883645558388606
10.296,0.4227369086667451
10.3,0.4043414614719594
10.304,0.4006935378878449
10.308,0.40628447062337847
10.312,0.37025679367324216
10.316,0.36612748842332943
10.32,0.3624468607065296
10.324,0.36088021225247857
10.328,0.36264342021499835
10.332,0.3715617553352334
10.336,0.36690742672026166
10.34,0.36413411162181925
10.344,0.3682313352257568
10.348,0.3741558613537839
10.352,0.3539207910786197
10.356,0.3845245505427069
10.36,0.3687759329195332
10.364,0.37593336037418135
10.368,0.38715446524712493
10.372,0.38640177262414166
10.376,0.39543613162897057
10.38,0.39538961243413295
10.384,0.3944686012035794
10.388,0.41601998118467404
10.392,0.4111503127556857
10.396,0.41034587075380924
10.4,0.41724597915388445
10.404,0.40547193511948426
10.408,0.4343918185251203
10.412,0.397359090334807
10.416,0.39712656465295454
10.42,0.3706891603469935
10.424,0.3393963006195114
10.428,0.3068191094529493
10.432,0.28475304333875023
10.436,0.3093191044728052
10.44,0.31896725979055374
10.444,0.4016645406512399
10.448,0.48516683305205144
10.452,0.5919267080927146
10.456,0.7551387481549938
10.46,0.9383806444957219
10.464,1.1358036984838176
10.468,1.320339501897037
10.472,1.453180309229521
10.476,1.4656564205346938
10.48,1.3693621767229291
10.484,1.1929522935072252
10.488,0.9924184486704496
10.492,0.7962601167009995
10.496,0.616107095794654
10.5,0.49926009864363846
10.504,0.3947582632182952
10.508,0.3070194687152367
10.512,0.2752522077270275
10.516,0.24155747154074414
10.52,0.2791594598676973
10.524,0.3452129073480038
10.528,0.4071816466959107
10.532,0.4341036780867753
10.536,0.4903739782496273
10.54,0.5040450059446466
10.544,0.4891090795282328
10.548,0.513843284796339
10.552,0.5100846693723706
10.556,0.5163245408785958
10.56,0.5100717729431526
10.564,0.5302357820410151
10.568,0.5463818690443611
10.572,0.5342008250145984
10.576,0.5128665293351232
10.58,0.540379747819641
10.584,0.5388288565689802
10.588,0.5332432660549011
10.592,0.5515373486417624
10.596,0.5608629840989859
10.6,0.5498117576251578
10.604,0.5449115723029042
10.608,0.5465612364623451
10.612,0.5658842017469723
10.616,0.5774401586677508
10.62,0.5809355316838056
10.624,0.5870609259074038
10.628,0.6081143678899791
10.632,0.6163863144118049
10.636,0.6238847832247846
10.64,0.6410067041999841
10.644,0.6380525847906608
10.648,0.6462457876346813
10.652,0.6653070861108491
10.656,0.6786600183966224
10.66,0.6787243862320763
10.664,0.7089628078989118
10.668,0.7410381721601131
10.672,0.753810980843369
10.676,0.7669408657488954
10.68,0.7787810260724224
10.684,0.8074210593505892
10.688,0.7972821507880821
10.692,0.8124607210588887
10.696,0.8466404339546957
10.7,0.8478218635185746
10.704,0.8516509636954043
10.708,0.8731940160757465
10.712,0.8709465872304694
10.716,0.8728337812391942
10.72,0.8765626832719714
10.724,0.8905104864756329
10.728,0.8894817796102326
10.732,0.9007844433443452
10.736,0.8790252222567053
10.74,0.873365185608185
10.744,0.8836625212940183
10.748,0.8704168415697994
10.752,0.8519377485784383
10.756,0.8236294847731853
10.76,0.8188958921738538
10.764,0.8034814760837228
10.768,0.8008393147233865
10.772,0.7814960945836686
10.776,0.7885653454624704
10.78,0.7428180099639139
10.784,0.7331254131339422
10.788,0.733753901439293
10.792,0.7235841399950056
10.796,0.6801626817333529
10.8,0.6770323732348317
10.804,0.68085474350989
10.808,0.6869496949947873
10.812,0.6829818875102692
10.816,0.6514952066060318
10.82,0.6462790108108784
10.824,0.6327465869595937
10.828,0.6413256181521656
10.832,0.6448612316755902
10.836,0.6373718963078416
10.84,0.6203560350153573
10.844,0.6086367656641578
10.848,0.613964417550995
10.852,0.6249785910988304
10.856,0.6048274228670124
10.86,0.5886624151683691
10.864,0.6014752096933289
10.868,0.6007743704074751
10.872,0.5840321576098306
10.876,0.6034019286687915
10.88,0.6051028234099634
10.884,0.6177006284415358
10.888,0.5849112029654971
10.892,0.6047278788695678
10.896,0.6063163201448765
10.9,0.6010930040899846
10.904,0.5850895165974306
10.908,0.5837713603860453
10.912,0.5946502892758638
10.916,0.5938261496050583
10.92,0.5865594624440177
10.924,0.6042790388321415
10.928,0.5865403792509079
10.932,0.5707700822561269
10.936,0.5865978522713604
10.94,0.5927432176916647
10.944,0.5904318551265337
10.948,0.5893951466678228
10.952,0.6000018421515674
10.956,0.5728910314603721
10.96,0.5787465211568671
10.964,0.5973463281006081
10.968,0.5611019161693619
10.972,0.57908557515345
10.976,0.590726488442311
10.98,0.5893602558287004
10.984,0.5825729334290615
10.988,0.5815481970164322
10.992,0.5629786651001966
10.996,0.5857935423243606
11.0,0.5587198378347974
11.004,0.5579740351631222
11.008,0.571934727795527
11.012,0.5618562925747496
11.016,0.5676849125664029
11.02,0.5689276852258642
11.024,0.5816696659491691
11.028,0.567887789078719
11.032,0.5575810051317841
11.036,0.5714933341749219
11.04,0.5583366516331694
11.044,0.5789026332391107
11.048,0.5749399912222919
11.052,0.5843981377776574
11.056,0.5703512640200575
11.06,0.5750522247914315
11.064,0.5934021066456528
11.068,0.6378293120000569
11.072,0.6214107743334579
11.076,0.6526128259519197
11.08,0.6503471160651603
11.084,0.6640843590354064
11.088,0.673205755231533
11.092,0.6940493271487246
11.096,0.6837562795545613
11.1,0.6782185233276736
11.104,0.6800539710864165
11.108,0.6501154613864873
11.112,0.6537412137667239
11.116,0.6366951915212622
11.12,0.6200532268731525
11.124,0.5927404634939071
11.128,0.5734433090167125
11.132,0.5536134284607562
11.136,0.5401108304091413
11.14,0.5264885593370792
11.144,0.5284773538971884
11.148,0.5132897291862619
11.152,0.5121136343980898
11.156,0.5061617808159818
11.16,0.48519915796322943
11.164,0.4802214706872412
11.168,0.4847635012313952
11.172,0.47566890792280814
11.176,0.47128916583254443
11.18,0.49392257144047325
11.184,0.4586277144793454
11.188,0.49125709675146384
11.192,0.47101381030704115
11.196,0.4750957927331958
11.2,0.4710199891348149
11.204,0.46559526677222096
11.208,0.4731127678909657
11.212,0.4427115246264036
11.216,0.44896256976072996
11.22,0.43884900201019844
11.224,0.42682968079212547
11.228,0.4323334499645194
11.232,0.4497828873615287
11.236,0.4154471859615563
11.24,0.4139448992857569
11.244,0.38177511974470535
11.248,0.3520759452460528
11.252,0.30752409857742413
11.256,0.2965607534670516
11.26,0.2877308226266785
11.264,0.32670887125379416
11.268,0.3935563145173733
11.272,0.4839942965074378
11.276,0.6123519144110979
11.28,0.7835454907518347
11.284,0.9664894203417109
11.288,1.1534698361493463
11.292,1.3231602962594993
11.296,1.3777958952898999
11.3,1.3359121331316115
11.304,1.201294858836384
11.308,1.0021455025026782
11.312,0.8076337273666185
11.316,0.605575876242434
11.32,0.46122838841100255
11.324,0.3227543569667683
11.328,0.21560650964375175
11.332,0.14291253024050393
11.336,0.09224813989797265
11.34,0.11579663305818313
11.344,0.16230328110576234
11.348,0.2193445494838619
11.352,0.2461626669384594
11.356,0.27887949206318613
11.36,0.30673791910292947
11.364,0.3324790490542008
11.368,0.3211592151202894
11.372,0.30884913132826874
11.376,0.2987923640687841
11.38,0.30297217364563733
11.384,0.29877705552466843
11.388,0.312191379545461
11.392,0.3095979910304588
11.396,0.2857322126585239
11.4,0.3006716108682286
11.404,0.29673876130469723
11.408,0.27574481553524977
11.412,0.284273982245561
11.416,0.2863961255596032
11.42,0.28285025487194737
11.424,0.2627491396680624
11.428,0.2802649126406668
11.432,0.28493318927210237
11.436,0.29456047821116216
11.44,0.27290391229834515
11.444,0.2756519871597497
11.448,0.28126943718794795
11.452,0.28930139001695937
11.456,0.29120352251633597
11.46,0.3009553267278008
11.464,0.28918177573664844
11.468,0.3107573282322842
11.472,0.3065282347297476
11.476,0.32043741217095273
11.48,0.3475606111852284
11.484,0.3257052174771897
11.488,0.34658304196769535
11.492,0.34666767486374794
11.496,0.3711704334800744
11.5,0.39036143662605255
11.504,0.3916380045851888
11.508,0.3984574534049803
11.512,0.4220034893291963
11.516,0.42032003189490624
11.52,0.4324994264898133
11.524,0.43754000291081296
11.528,0.4063200422167153
11.532,0.4374587063448681
11.536,0.42889714373735677
11.54,0.4310376622969935
11.544,0.4518536818314058
11.548,0.42921951048910567
11.552,0.44583088733846404
11.556,0.4048755857836874
11.56,0.39833997475257127
11.564,0.4053021452091693
11.568,0.38117574680579003
11.572,0.37313984622284463
11.576,0.3531658726960847
11.58,0.33602606265491664
11.584,0.3167188527519223
11.588,0.3032231201989714
11.592,0.2890797975193642
11.596,0.2798162084293889
11.6,0.24262361874495156
11.604,0.22183786841465616
11.608,0.20198689824794652
11.612,0.20380133429803723
11.616,0.17847471557917094
11.62,0.1357238244425415
11.624,0.11917648231752287
11.628,0.11500559332253363
11.632,0.11114437559940679
11.636,0.09489743645976251
11.64,0.08761874767415917
11.644,0.06878733545789614
11.648,0.07338878982744683
11.652,0.05677073645762213
11.656,0.040175278723063354
11.66,0.0418651212307326
11.664,0.0055414919236113115
11.668,0.013348192097225776
11.672,0.008235165884002747
11.676,0.005978893462602419
11.68,-0.023710080890769838
11.684,-0.015344412107088604
11.688,-0.014628365248971452
11.692,-0.019506308314640626
11.696,-0.017851280235731813
11.7,-0.02735499551878421
11.704,-0.04068782206684078
11.708,-0.038315913306022825
11.712,-0.05196408091676313
11.716,-0.05328424594449609
11.72,-0.0515375470047311
11.724,-0.06461690229356586
11.728,-0.065177487209516
11.732,-0.06378142767045147
11.736,-0.07084045738340845
11.74,-0.07017086141295165
11.744,-0.06374472037982629
11.748,-0.08450701225773978
11.752,-0.10064230423398604
11.756,-0.09539215342548478
11.76,-0.10029253736541272
11.764,-0.10330630668192518
11.768,-0.09894301114476778
11.772,-0.13517759059581566
11.776,-0.10763322914890247
11.78,-0.10869455496084429
11.784,-0.12593715585184692
11.788,-0.13010763852223942
11.792,-0.14284845693701398
11.796,-0.1447635422536529
11.8,-0.14223361656257702
11.804,-0.1472553578978882
11.808,-0.15075270179456418
11.812,-0.15605297255126532
11.816,-0.1576863065866457
11.82,-0.16314466998257246
11.824,-0.1855856482152579
11.828,-0.1713400762896854
11.832,-0.16538639090231758
11.836,-0.18853583557594292
11.84,-0.1775580586980667
11.844,-0.20599196452420357
11.848,-0.20136037486067832
11.852,-0.2116868541976483
11.856,-0.19565006325217085
11.86,-0.19713638060340663
11.864,-0.21852922861233834
11.868,-0.20966881466140164
11.872,-0.20848833082525536
11.876,-0.22861178968684492
11.88,-0.22981424088039404
11.884,-0.22598067558105647
11.888,-0.24312651925760814
11.892,-0.23394374648663763
11.896,-0.2126922784034742
11.9,-0.23671693425595047
11.904,-0.21913467268363684
11.908,-0.2166750089208873
11.912,-0.21612355007711587
11.916,-0.20338017951857607
11.92,-0.17810053728874067
11.924,-0.1795965692728198
11.928,-0.16772322309185098
11.932,-0.14949236205201463
11.936,-0.1609013294703866
11.94,-0.163587986282812
11.944,-0.1337866536471429
11.948,-0.15211051391607222
11.952,-0.1503436037066151
11.956,-0.17636032005742755
11.96,-0.17754734457503693
11.964,-0.20770071161952675
11.968,-0.2132166880481554
11.972,-0.2384435314508271
11.976,-0.25903055956309395
11.98,-0.2710469053807636
11.984,-0.30762631498651716
11.988,-0.31150183281347393
11.992,-0.30561720956832356
11.996,-0.32178235959328566
12.0,-0.34617288080177544
12.004,-0.33863995178428
12.008,-0.360314399800792
12.012,-0.3506791089736485
12.016,-0.36459401874813724
12.02,-0.371596346401415
12.024,-0.37369660116543324
12.028,-0.35129610032887604
12.032,-0.38834908441090726
12.036,-0.3822020005976105
12.04,-0.3802480014041914
12.044,-0.40120166416421205
12.048,-0.41097987245266926
12.052,-0.4044658261569166
12.056,-0.3942440510070091
12.06,-0.4086146387649048
12.064,-0.41084184542313135
12.068,-0.40276740496979396
12.072,-0.4233974822340819
12.076,-0.42014342615166306
12.08,-0.4397062696342594
12.084,-0.4300139148864853
12.088,-0.4459906075509986
12.092,-0.4648852190376518
12.096,-0.5186741540373792
12.1,-0.5479070874690781
12.104,-0.5905259282906261
12.108,-0.5921174608605867
12.112,-0.5590800180394119
12.116,-0.5330967269751022
12.12,-0.4734438099338096
12.124,-0.36860879898068755
12.128,-0.24540661833463456
12.132,-0.07149900555343353
12.136,0.14616018784605278
12.14,0.3184036702673822
12.144,0.4789958300870765
12.148,0.5274210307625435
12.152,0.46471513554602534
12.156,0.32319083984664293
12.16,0.11113532844249235
12.164,-0.07825396250308647
12.168,-0.27784938595382147
12.172,-0.4270366576902186
12.176,-0.5526007414693945
12.18,-0.6402231150640513
12.184,-0.7108939474512572
12.188,-0.7715049796172686
12.192,-0.7286414845034328
12.196,-0.7026866129280404
12.2,-0.6314622246501675
12.204,-0.5793912216749059
12.208,-0.5485022718021706
12.212,-0.5224589203791344
12.216,-0.513418967793493
12.22,-0.5270505035123069
12.224,-0.5283949254277179
12.228,-0.5223683385626899
12.232,-0.5392962507687576
12.236,-0.5304261687979601
12.24,-0.5138580010369057
12.244,-0.5439385320519168
12.248,-0.5336412256563081
12.252,-0.5373262911250668
12.256,-0.5122795897582288
12.26,-0.538368470919205
12.264,-0.5381327591235174
12.268,-0.5436287447980108
12.272,-0.532806572824279
12.276,-0.5293162984554528
12.28,-0.5394784231236155
12.284,-0.5187622665467029
12.288,-0.5233376707645939
12.292,-0.5142413093101764
12.296,-0.5220133775998882
12.3,-0.5114830954680802
12.304,-0.5103986494632047
12.308,-0.48718161869811116
12.312,-0.49320471644401653
12.316,-0.48600152054106877
12.32,-0.4815173223082196
12.324,-0.4720947318629034
12.328,-0.45376322361156324
12.332,-0.4364277504998182
12.336,-0.4393254665479892
12.34,-0.4185612749843776
12.344,-0.4049631801778408
12.348,-0.38998969741714523
12.352,-0.3973853843643559
12.356,-0.37645622466405915
12.36,-0.36813081913970314
12.364,-0.34198187799322166
12.368,-0.3399447027927238
12.372,-0.3255142378948435
12.376,-0.32330086715289386
12.38,-0.307567278176154
12.384,-0.3084838095292827
12.388,-0.28503727959080766
12.392,-0.2849683081099235
12.396,-0.28724496263429655
12.4,-0.29263223585389314
12.404,-0.31273406815001276
12.408,-0.3015258832683755
12.412,-0.31091528245999095
12.416,-0.30885011953625446
12.42,-0.31467832853396127
12.424,-0.32855148623155844
12.428,-0.33127835886269336
12.432,-0.36269444995929684
12.436,-0.3769964499412787
12.44,-0.3749809838838922
12.444,-0.39852240213249235
12.448,-0.4176393810482123
12.452,-0.4116561954014155
12.456,-0.4390852416279153
12.46,-0.46113815595979507
12.464,-0.4799515801177501
12.468,-0.47305776031521685
12.472,-0.4967596904628564
12.476,-0.5102945361051515
12.48,-0.5146393797192186
12.484,-0.5225858133307487
12.488,-0.5349832115170701
12.492,-0.5398533633515282
12.496,-0.5515263202197842
12.5,-0.5570055808946396
12.504,-0.5755940464794368
12.508,-0.5551545080413501
12.512,-0.589885756785216
12.516,-0.5781129868047209
12.52,-0.5976564122324698
12.524,-0.5878331798705422
12.528,-0.59466445895089
12.532,-0.589282741488903
12.536,-0.5885499527693737
12.54,-0.6025419952323486
12.544,-0.5940091340883681
12.548,-0.5802768287139954
12.552,-0.6076298764141652
12.556,-0.6031652346071905
12.56,-0.5859833333121528
12.564,-0.593651559198116
12.568,-0.5926399265763985
12.572,-0.5835561625263019
12.576,-0.6012635723630094
12.58,-0.5979863532880668
12.584,-0.5986244718671728
12.588,-0.5950269748126445
12.592,-0.5774439988137863
12.596,-0.607096099567716
12.6,-0.6012288646252767
12.604,-0.6021029286156401
12.608,-0.5735487641084438
12.612,-0.5927911526645553
12.616,-0.5889584639163905
12.62,-0.6008467517842366
12.624,-0.5862978158591194
12.628,-0.5739477253196306
12.632,-0.5789882455531499
12.636,-0.5814675608436553
12.64,-0.5948753797861412
12.644,-0.5813103626009318
12.648,-0.575332895083053
12.652,-0.5854585131542676
12.656,-0.5676967016409056
12.66,-0.5640674720133514
12.664,-0.576844396449854
12.668,-0.5629064581029473
12.672,-0.5698358893531893
12.676,-0.555807046572661
12.68,-0.5454418214324134
12.684,-0.5751874982901292
12.688,-0.5549818968322252
12.692,-0.5480040603242242
12.696,-0.5690763475901859
12.7,-0.5633558312505492
12.704,-0.5615922085471171
12.708,-0.5550230533327111
12.712,-0.5550026195391945
12.716,-0.5508506904141272
12.72,-0.5374797735967007
12.724,-0.5612169770278573
12.728,-0.5476162886867775
12.732,-0.5258014901420867
12.736,-0.5203742668406832
12.74,-0.528448666136622
12.744,-0.5026087838650486
12.748,-0.48355794189195467
12.752,-0.48422676039377643
12.756,-0.4791744208495895
12.76,-0.4444835834635645
12.764,-0.4194304494275159
12.768,-0.42890915995624473
12.772,-0.40378760268276787
12.776,-0.378993081389313
12.78,-0.3768416699642801
12.784,-0.38663818237821235
12.788,-0.359452939917136
12.792,-0.37217214420219275
12.796,-0.377299087298396
12.8,-0.3874445968555288
12.804,-0.3666256209851615
12.808,-0.3972795162550649
12.812,-0.39721284332354156
12.816,-0.40675797717832923
12.82,-0.4225768699193275
12.824,-0.4319209884519204
12.828,-0.4403809698394214
12.832,-0.45047536659965176
12.836,-0.4653935159198901
12.84,-0.4705361855356896
12.844,-0.46580043157503936
12.848,-0.467377445353471
12.852,-0.46207066080563747
12.856,-0.45470217714812067
12.86,-0.4609453963417147
12.864,-0.47064433458396115
12.868,-0.48212423910436464
12.872,-0.4655138457817278
12.876,-0.46859575889750404
12.88,-0.4596522017535619
12.884,-0.4470332331669892
12.888,-0.4456549831430166
12.892,-0.42491159314374616
12.896,-0.43561873526566597
12.9,-0.4182823540076194
12.904,-0.42712238069738406
12.908,-0.4203111805915046
12.912,-0.4317209806824198
12.916,-0.43616556808214135
12.92,-0.4282453515816488
12.924,-0.42488433915085394
12.928,-0.43753337694839506
12.932,-0.45651411399796293
12.936,-0.46779271726960375
12.94,-0.5140535409199757
12.944,-0.5479556860405759
12.948,-0.5559502561558054
12.952,-0.5329321427090014
12.956,-0.497697160025173
12.96,-0.4207287806369986
12.964,-0.3163495093995405
12.968,-0.18802059036469268
12.972,-0.033583314739935644
12.976,0.1591056894965765
12.98,0.3717624391784726
12.984,0.552291699128546
12.988,0.6409118978532335
12.992,0.6147784332689477
12.996,0.50279817702662
13.0,0.3236212960288479
13.004,0.09871318814047558
13.008,-0.06757810827359212
13.012,-0.23979905738606905
13.016,-0.3522257662647269
13.02,-0.4556480831974375
13.024,-0.5548616296433571
13.028,-0.5794081180704002
13.032,-0.5730343672894408
13.036,-0.5334174283434374
13.04,-0.4442922179761235
13.044,-0.37292345868437476
13.048,-0.3517448415642842
13.052,-0.31287653845030944
13.056,-0.2910828341487132
13.06,-0.2951824807065397
13.064,-0.29186230280930053
13.068,-0.28945793130774694
13.072,-0.27727593612385476
13.076,-0.2695490068278976
13.08,-0.2692332024981706
13.084,-0.26500822739522184
13.088,-0.2650765464669651
13.092,-0.27559797830117944
13.096,-0.24558597088459105
13.1,-0.2620592544376347
13.104,-0.2373843062349642
13.108,-0.2300571787058989
13.112,-0.24267844723026322
13.116,-0.23058336459716802
13.12,-0.19603907628460787
13.124,-0.2102579702396918
13.128,-0.21327831240765147
13.132,-0.18402761425485942
13.136,-0.1900164699599023
13.14,-0.19099156714068194
13.144,-0.15528527675855208
13.148,-0.15751143674249077
13.152,-0.13213821479464039
13.156,-0.12961506442614087
13.16,-0.09969421349870669
13.164,-0.08937448325715366
13.168,-0.10075512536729722
13.172,-0.053973659001791435
13.176,-0.04298826391490343
13.18,-0.007699270639773964
13.184,0.0006977519557064826
13.188,0.023152104095007897
13.192,0.027389119921341964
13.196,0.04536767916224868
13.2,0.07145417999593215
13.204,0.08600637809105638
13.208,0.12014248669442262
13.212,0.12141826077133963
13.216,0.12573106762925795
13.22,0.14338365975978273
13.224,0.1734754882592139
13.228,0.17266060198123023
13.232,0.1808630531854021
13.236,0.2005562244705317
13.24,0.1857913005600216
13.244,0.17566169615110336
13.248,0.1906754385452193
13.252,0.2009937357283621
13.256,0.19372036858749314
13.26,0.1766543520124281
13.264,0.19701646255679423
13.268,0.1818178835552137
13.272,0.17632275103532496
13.276,0.1680053662755831
13.28,0.14153784828450008
13.284,0.14781341040958576
13.288,0.1438740395688716
13.292,0.13616684493154912
13.296,0.12207222864262096
13.3,0.11038345683322245
13.304,0.07871257896776934
13.308,0.08733798271834357
13.312,0.06998940186605096
13.316,0.08519064334365578
13.32,0.07728917949870118
13.324,0.05093471676954354
13.328,0.05528927113782235
13.332,0.054396486873710945
13.336,0.05791870554100828
13.34,0.02996216547486881
13.344,0.02319871080510902
13.348,0.04497510374021884
13.352,0.019247772410199118
13.356,0.046729723703291454
13.36,0.05220439126112388
13.364,0.06028021493540897
13.368,0.04377349794716176
13.372,0.054079691814748476
13.376,0.06179005534019898
13.38,0.0466164249049482
13.384,0.07087464217809916
13.388,0.0680225253310298
13.392,0.06295875079383267
13.396,0.07430721291050413
13.4,0.07550016598585081
13.404,0.08879174224869091
13.408,0.08156209163761982
13.412,0.09167528856740226
13.416,0.08748121341692429
13.42,0.0886354694136611
13.424,0.10408057774849122
13.428,0.09776936857991277
13.432,0.11912897563927866
13.436,0.12144103579342894
13.44,0.1122685718368381
13.444,0.12646085135297794
13.448,0.12102920446289288
13.452,0.11708407397406974
13.456,0.13155221541003534
13.46,0.14141357484613926
13.464,0.15151711095351353
13.468,0.1521772935640488
13.472,0.16413123319385745
13.476,0.14960678388244922
13.48,0.16000691336958503
13.484,0.1845640990834107
13.488,0.15314688654048922
13.492,0.17226579188146712
13.496,0.17038813744494763
13.5,0.18345665644238987
13.504,0.1853633087744005
13.508,0.20001586464687698
13.512,0.2008253111698848
13.516,0.18947902431457642
13.52,0.20090828721001375
13.524,0.2110338766528977
13.528,0.2226661468550017
13.532,0.2438346149349705
13.536,0.23076699843765583
13.54,0.21785929480699598
13.544,0.23131874813817604
13.548,0.23839341345289045
13.552,0.23580915620335624
13.556,0.25027582332109216
13.56,0.22766195594474922
13.564,0.2610523870168497
13.568,0.2563878332529388
13.572,0.26634747605952847
13.576,0.2892622907184537
13.58,0.2702424963646267
13.584,0.29515378725099
13.588,0.3114480023805341
13.592,0.3179429259552523
13.596,0.31451247536381693
13.6,0.3601561098768789
13.604,0.3618528942981174
13.608,0.3768772126025254
13.612,0.3974915756469558
13.616,0.41472627286230485
13.62,0.4232776240855748
13.624,0.45131459989293976
13.628,0.4552945126988778
13.632,0.476128591179009
13.636,0.4789756396813343
13.64,0.49062053776397996
13.644,0.46923935525839217
13.648,0.45724229300702274
13.652,0.4421185721012769
13.656,0.46872184184074905
13.66,0.4426483785981189
13.664,0.4183878997067676
13.668,0.43223287621089435
13.672,0.4200527659542364
13.676,0.3856867141764728
13.68,0.3860385751942731
13.684,0.3882901250343956
13.688,0.37650841228038867
13.692,0.3852121468094781
13.696,0.3934192042055683
13.7,0.37361449375161915
13.704,0.39203741513097295
13.708,0.40307937692380497
13.712,0.3980569416027878
13.716,0.39621215578905133
13.72,0.39336415862892
13.724,0.4115290707190882
13.728,0.3946808212310861
13.732,0.4121313623446741
13.736,0.4132168209906238
13.74,0.42746872353791876
13.744,0.41362122013651825
13.748,0.41768645605110954
13.752,0.4134269987220057
13.756,0.433321515861708
13.76,0.42756919483441447
13.764,0.42529655939327277
13.768,0.42636973416256513
13.772,0.43516331267446157
13.776,0.40686318488490697
13.78,0.3857035528314604
13.784,0.3740389232777524
13.788,0.3316802857201641
13.792,0.3228263468315655
13.796,0.3129853775071427
13.8,0.3484241689389941
13.804,0.4092274955408768
13.808,0.5067505940187039
13.812,0.620989957279281
13.816,0.771255379993466
13.82,0.9417488632073652
13.824,1.1447931213142235
13.828,1.3489486242874755
13.832,1.475121327168541
13.836,1.4917418818527173
13.84,1.3926307061631247
13.844,1.2326197249243875
13.848,1.0306668393218748
13.852,0.8285485740819297
13.856,0.6611028511531144
13.86,0.523494161161517
13.864,0.40401037952889773
13.868,0.3200817698055737
13.872,0.26881594230165134
13.876,0.25130257385097865
13.88,0.3008377717026365
13.884,0.3561751351690463
13.888,0.4251984600853905
13.892,0.4792516904420786
13.896,0.5118173736645332
13.9,0.5303952617751547
13.904,0.5175105196226645
13.908,0.5154084351775429
13.912,0.542042154979516
13.916,0.5490548330391173
13.92,0.5531873954840724
13.924,0.5448931167436031
13.928,0.52255842099673
13.932,0.548757932870733
13.936,0.5533536044510872
13.94,0.5631684255796172
13.944,0.5679777522174293
13.948,0.5660353298686955
13.952,0.5545901455061739
13.956,0.5540088432634197
13.96,0.5738402995808412
13.964,0.5651943841837419
13.968,0.5929608413602061
13.972,0.5667850686377706
13.976,0.5957080368996553
13.98,0.6000857209239955
13.984,0.6023683696364164
13.988,0.6034710890028426
13.992,0.6011693570364909
13.996,0.6263440591163965
14.0,0.6372119449437499
14.004,0.664981358434231
14.008,0.6583514919305329
14.012,0.6837892034710594
14.016,0.6801273927220541
14.02,0.7122666764833627
14.024,0.7000243136432469
14.028,0.7586883070086435
14.032,0.7519083808425817
14.036,0.7410406413110566
14.04,0.7773739034314462
14.044,0.7910624848219916
14.048,0.8080240963074473
14.052,0.8249834858315028
14.056,0.8351255370130447
14.06,0.8455796111828362
14.064,0.8528271008658586
14.068,0.8818056048239066
14.072,0.8931244505223815
14.076,0.8843195904138268
14.08,0.8905743749500618
14.084,0.8814463689222509
14.088,0.8934285918129614
14.092,0.8930894062280551
14.096,0.8847789933730232
14.1,0.8853126036379242
14.104,0.8771293637417393
14.108,0.8546471828450908
14.112,0.8668896022790769
14.116,0.8414648493723929
14.12,0.8478918109230873
14.124,0.8221565992202786
14.128,0.8239108127523329
14.132,0.8018443197791838
14.136,0.7780950502842511
14.14,0.7543529957465287
14.144,0.7405307023693877
14.148,0.7391935710660752
14.152,0.7220980585424552
14.156,0.7021767964451558
14.16,0.704481919098541
14.164,0.6853722085235068
14.168,0.6830001219069961
14.172,0.6552966218688216
14.176,0.6663083857546853
14.18,0.6533963437746346
14.184,0.6532209241426747
14.188,0.6446291189945688
14.192,0.6283215558724218
14.196,0.6224899027688745
14.2,0.6375482085352789
14.204,0.6129313301889481
14.208,0.6199279669536902
14.212,0.6056673920891602
14.216,0.5882766364990641
14.22,0.5923613373131544
14.224,0.6067103029528947
14.228,0.6079119145393168
14.232,0.6034356112451397
14.236,0.609403730094581
14.24,0.6005841634709844
14.244,0.5877458115550027
14.248,0.6003435051578067
14.252,0.5950545277234209
14.256,0.5865995065780892
14.26,0.5961014039684585
14.264,0.5912037728648033
14.268,0.5833970233302233
14.272,0.586700593460273
14.276,0.6016361035233243
14.28,0.6003144198609368
14.284,0.5873720463962778
14.288,0.5850251825812272
14.292,0.5690583886730152
14.296,0.5994914193784554
14.3,0.5915412862887659
14.304,0.5875476111447974
14.308,0.5561003697098728
14.312,0.578045276405225
14.316,0.5751215306895198
14.32,0.5819458663861943
14.324,0.5693002581091643
14.328,0.5701541996584041
14.332,0.5772940573900022
14.336,0.5619607805391873
14.34,0.5625210712663367
14.344,0.5687285700293466
14.348,0.5786839160093413
14.352,0.5718594230385693
14.356,0.5729798190220633
14.36,0.5612913742559528
14.364,0.5740328174133924
14.368,0.5401017271986853
14.372,0.5762007273343863
14.376,0.5760328430984307
14.38,0.5577474308337111
14.384,0.5603793925807111
14.388,0.5508707240960258
14.392,0.5488088674865913
14.396,0.5450844093649835
14.4,0.5518308956339188
14.404,0.5600716638834632
14.408,0.5621911306038813
14.412,0.5828266178310535
14.416,0.5705600906201842
14.42,0.562936748182356
14.424,0.6041145165593937
14.428,0.5866307465096816
14.432,0.6053034964330566
14.436,0.6259551380976491
14.44,0.6392895482065961
14.444,0.6312588631647971
14.448,0.6467309773474899
14.452,0.6450124481568023
14.456,0.6682277240690471
14.46,0.6722618615499547
14.464,0.6427954047077038
14.468,0.6559525629575861
14.472,0.6431692582259588
14.476,0.6127058130174662
14.48,0.5832806838930872
14.484,0.5754152137290003
14.488,0.5631927034065645
14.492,0.5682427226229166
14.496,0.5364932762292526
14.5,0.5139562021222356
14.504,0.5135054604517346
14.508,0.488738756033018
14.512,0.4980588773436574
14.516,0.47574046714503465
14.52,0.4709536379471814
14.524,0.4777287312738137
14.528,0.48689031678949246
14.532,0.4873117740629228
14.536,0.45125804480229825
14.54,0.45226874977722853
14.544,0.4601323790199141
14.548,0.46350574154822743
14.552,0.42707100437372086
14.556,0.4465022049236358
14.56,0.43767801295971354
14.564,0.42022141164258253
14.568,0.42298629238949936
14.572,0.42755500573558763
14.576,0.4306629546500451
14.58,0.4369233289749338
14.584,0.4269245070203982
14.588,0.42869045493936514
14.592,0.41342537739195157
14.596,0.39585225911706473
14.6,0.3833438328382546
14.604,0.3643383034526424
14.608,0.33095198729590136
14.612,0.2808259028129413
14.616,0.24560625133697508
14.62,0.25370670647348037
14.624,0.2790493088834723
14.628,0.33803527059252103
14.632,0.3963114877539608
14.636,0.5032948420438439
14.64,0.6608351625568736
14.644,0.8294403439249228
14.648,1.0291754774238664
14.652,1.2289799953645262
14.656,1.3213492453867763
14.66,1.3742712828623334
14.664,1.259244860727324
14.668,1.1039886577992672
14.672,0.8866120951207097
14.676,0.6868832587945842
14.68,0.5056138096235294
14.684,0.37228785018145344
14.688,0.2420432365898607
14.692,0.1470325878006407
14.696,0.11140032195485594
14.7,0.07635769958721486
14.704,0.09326548226542344
14.708,0.13528527039318888
14.712,0.22398639042547225
14.716,0.2436483885645317
14.72,0.29653115075025455
14.724,0.29208585641108187
14.728,0.2926521004656777
14.732,0.2916336735299852
14.736,0.30908074059525825
14.74,0.261452489112401
14.744,0.28186850298811494
14.748,0.27345588482085154
14.752,0.2704396581817556
14.756,0.2706343261428318
14.76,0.2631843530377684
14.764,0.2645992275587795
14.768,0.25955280391060076
14.772,0.24396181402009656
14.776,0.25850080210913784
14.78,0.2597652108676055
14.784,0.24547989937651954
14.788,0.2683075327812383
14.792,0.2622005737380597
14.796,0.25704639131337703
14.8,0.2572902648820975
14.804,0.25029722983626673
14.808,0.26314556017980767
14.812,0.2699331336537759
14.816,0.2655966881732449
14.82,0.2559302688075534
14.824,0.2661946968125508
14.828,0.2781292000908438
14.832,0.2873969390911297
14.836,0.2856617274156021
14.84,0.288918437097444
14.844,0.31923248189647735
14.848,0.3020231734918003
14.852,0.31311682700370475
14.856,0.3193247127414352
14.86,0.3333429531898085
14.864,0.3653684612452821
14.868,0.3755577386600145
14.872,0.37139541488503247
14.876,0.3858069497018598
14.88,0.3885580253523946
14.884,0.38346972635497045
14.888,0.4230115889516872
14.892,0.41855812760806954
14.896,0.4107212352766003
14.9,0.3992444609970325
14.904,0.40434512816124646
14.908,0.39656478448217397
14.912,0.3994373753772822
14.916,0.39462237528074
14.92,0.37930998734090404
14.924,0.35759395386230447
14.928,0.3812087044857677
14.932,0.3484897344192478
14.936,0.335550488012532
14.94,0.31046106195299217
14.944,0.2817967476806644
14.948,0.27855557038243917
14.952,0.25757965093448637
14.956,0.24899093868190963
14.96,0.2319016876751897
14.964,0.21148719290900683
14.968,0.194939550205918
14.972,0.18469188765121475
14.976,0.15266429203617268
14.98,0.14249212893477298
14.984,0.11988527099336523
14.988,0.08017192339056095
14.992,0.08267647768309215
14.996,0.06144251575022716
15.0,0.05918696090025262
15.004,0.03656098448975221
15.008,0.03894851478497033
15.012,0.03191020564800745
15.016,0.02408805897161257
15.02,0.018891760202798005
15.024,-0.022774122638551178
15.028,-0.02613322696825621
15.032,0.007532124816452185
15.036,-0.01878337295393602
15.04,-0.03335084501407437
15.044,-0.04162726358190183
15.048,-0.04855208673421486
15.052,-0.07308429970126203
15.056,-0.06700075020009912
15.06,-0.06572934812101856
15.064,-0.07693699021620906
15.068,-0.08065867469181313
15.072,-0.05413385483474842
15.076,-0.0870565418553434
15.08,-0.08649956037801734
15.084,-0.09153217622623276
15.088,-0.09268742052481968
15.092,-0.10793655861776519
15.096,-0.09524059393203946
15.1,-0.10779260162519261
15.104,-0.12959372070599845
15.108,-0.12227083653216
15.112,-0.12737382390178656
15.116,-0.13227561622363782
15.12,-0.12942937701585908
15.124,-0.1325914740381868
15.128,-0.1381774537527205
15.132,-0.14434957014748878
15.136,-0.15126695300399057
15.14,-0.17801009148355978
15.144,-0.1530839537068564
15.148,-0.16033432942516748
15.152,-0.17941045079733234
15.156,-0.17109165537868937
15.16,-0.17174187239463953
15.164,-0.1708207853608002
15.168,-0.18172887104069624
15.172,-0.18789838231454256
15.176,-0.18590838394279496
15.18,-0.20267452889984053
15.184,-0.19968053385271575
15.188,-0.2141410231219855
15.192,-0.20086248091509087
15.196,-0.2319571561959583
15.2,-0.21137845462849755
15.204,-0.22275182417508915
15.208,-0.21623084312071894
15.212,-0.23606069040016364
15.216,-0.22895033404973056
15.22,-0.22984719687116592
15.224,-0.22549881446759587
15.228,-0.23826151458692654
15.232,-0.21776073355549208
15.236,-0.23721012191227003
15.24,-0.2183680321198312
15.244,-0.2187347111796818
15.248,-0.1850647818418438
15.252,-0.17892690652789545
15.256,-0.16796883976606491
15.26,-0.14820950859343995
15.264,-0.1581609435862297
15.268,-0.14341236303958108
15.272,-0.14647378091798025
15.276,-0.14920868349180283
15.28,-0.14028420454725785
15.284,-0.14124497603492797
15.288,-0.17844078064384428
15.292,-0.18060709796265473
15.296,-0.2025718871873588
15.3,-0.2204397113639932
15.304,-0.23961497744059368
15.308,-0.26336721931109763
15.312,-0.31285724344596466
15.316,-0.27723149155700993
15.32,-0.3134577043884276
15.324,-0.3211349375703046
15.328,-0.3314609370188482
15.332,-0.34611034428870363
15.336,-0.3435624771895583
15.34,-0.3530045457505476
15.344,-0.3654500469828867
15.348,-0.3618438305399689
15.352,-0.3682202915367906
15.356,-0.3628036237797706
15.36,-0.3894234246604776
15.364,-0.3878344769793516
15.368,-0.376167003455397
15.372,-0.3933725450596852
15.376,-0.3995044269510872
15.38,-0.39982415620546163
15.384,-0.39834687171125766
15.388,-0.4016958111591206
15.392,-0.40618852181041676
15.396,-0.4177382415462476
15.4,-0.40316389133330893
15.404,-0.40142941406759003
15.408,-0.43870979211177596
15.412,-0.4428707507970887
15.416,-0.43071943042376304
15.42,-0.44740421288708404
15.424,-0.5169071537905195
15.428,-0.5261063585207444
15.432,-0.5523205645038045
15.436,-0.5944728933941479
15.44,-0.5605766143513878
15.444,-0.5400796645014365
15.448,-0.47066079066031963
15.452,-0.3895419274091864
15.456,-0.24792089060654512
15.46,-0.08686512866239171
15.464,0.11609633999304475
15.468,0.3112591921359283
15.472,0.4546355111973157
15.476,0.5594099284345049
15.48,0.5078424794481032
15.484,0.36759902820535806
15.488,0.15889514356050283
15.492,-0.05540100597273018
15.496,-0.24518278168499322
15.5,-0.3992028387745906
15.504,-0.5060508611254517
15.508,-0.6200720567051464
15.512,-0.707743890071912
15.516,-0.7413132298554519
15.52,-0.737308459250098
15.524,-0.686121206020075
15.528,-0.6463613824146559
15.532,-0.5816134227551095
15.536,-0.5450500173879648
15.54,-0.5360038645169451
15.544,-0.5029959053566985
15.548,-0.519708165686986
15.552,-0.527379030041875
15.556,-0.5105818757484141
15.56,-0.5204433427838949
15.564,-0.5187536573383795
15.568,-0.536428458169254
15.572,-0.5180615449091677
15.576,-0.5058992494294956
15.58,-0.5414951290548934
15.584,-0.5263413237820238
15.588,-0.5384902570652996
15.592,-0.5041914865691888
15.596,-0.51879357717799
15.6,-0.528074545018017
15.604,-0.5424312763685601
15.608,-0.5387665013331123
15.612,-0.5196360871584943
15.616,-0.5382986931549326
15.62,-0.5348851517979466
15.624,-0.5176569943805455
15.628,-0.5118037058182348
15.632,-0.5039082805759456
15.636,-0.5058186291590822
15.64,-0.4850581170727676
15.644,-0.4948266396259361
15.648,-0.4710112115001115
15.652,-0.46535183459409113
15.656,-0.4508943839550743
15.66,-0.4337490388013893
15.664,-0.4381411367265886
15.668,-0.4276810212892692
15.672,-0.42503533124290566
15.676,-0.41517707811828386
15.68,-0.38351131532667704
15.684,-0.36971004188758827
15.688,-0.36669923535059334
15.692,-0.35228227778831084
15.696,-0.3168101333674109
15.7,-0.31270829755751206
15.704,-0.32465281323257333
15.708,-0.30836335675461696
15.712,-0.29328139226241673
15.716,-0.2986465307459292
15.72,-0.297260292132121
15.724,-0.2911770255749607
15.728,-0.2773833293332294
15.732,-0.27885330182285306
15.736,-0.30225241159122423
15.74,-0.2963118522720162
15.744,-0.3086915611434452
15.748,-0.3279818092237966
15.752,-0.3315487804766048
15.756,-0.3531282377657946
15.76,-0.34179849071074314
15.764,-0.3516776059367349
15.768,-0.3857008075087974
15.772,-0.402887419567164
15.776,-0.4008555672844262
15.78,-0.4142526942467871
15.784,-0.45239720286785956
15.788,-0.457234459475335
15.792,-0.47036200737186057
15.796,-0.49089395141097525
15.8,-0.4920346617513131
15.804,-0.5148193538551074
15.808,-0.524309543294512
15.812,-0.5301344057880044
15.816,-0.5533373031590734
15.82,-0.5674504563716778
15.824,-0.5452728149174925
15.828,-0.5685881106849451
15.832,-0.5457647271158498
15.836,-0.5525697081069785
15.84,-0.5818263029224288
15.844,-0.5571989223257113
15.848,-0.5744534210850684
15.852,-0.5929909649915815
15.856,-0.6145895872540529
15.86,-0.5837010103342618
15.864,-0.5917090626186355
15.868,-0.5888222632245934
15.872,-0.5962547090785777
15.876,-0.6059899626706332
15.88,-0.5991950093595553
15.884,-0.5880496293218777
15.888,-0.5986946273208664
15.892,-0.5986556103036709
15.896,-0.6100303128631271
15.9,-0.5936096950069765
15.904,-0.6052396934983517
15.908,-0.5844580805565761
15.912,-0.600440519293854
15.916,-0.5954531451632313
15.92,-0.5701991047568054
15.924,-0.594198403639397
15.928,-0.5947866927993577
15.932,-0.5837304616901919
15.936,-0.6066047481375292
15.94,-0.5753709494753619
15.944,-0.5770293715363474
15.948,-0.580777840256758
15.952,-0.6188115718625083
15.956,-0.586618217112321
15.96,-0.5957019979527562
15.964,-0.570647596727301
15.968,-0.5702447558362088
15.972,-0.5757385615214103
15.976,-0.5904648268270772
15.98,-0.5622727127263512
15.984,-0.5785871663936363
15.988,-0.5566267064198672
15.992,-0.5707092474405231
15.996,-0.5669442283674067
16.0,-0.5752302694282561
16.004,-0.5551368107762846
16.008,-0.5616626033637833
16.012,-0.5518150806389926
16.016,-0.5629136455870295
16.02,-0.5635385194635495
16.024,-0.5554076238465886
16.028,-0.545101721776989
16.032,-0.5473544849768557
16.036,-0.5538880473521176
16.04,-0.5712448017889715
16.044,-0.5414935576524681
16.048,-0.560266783480405
16.052,-0.5409731234430508
16.056,-0.5368657618727607
16.06,-0.5429850924938989
16.064,-0.5166858426969678
16.068,-0.48881403358658027
16.072,-0.5016974838340345
16.076,-0.47744403935342805
16.08,-0.4466004349685322
16.084,-0.44549058854868745
16.088,-0.4439866791768984
16.092,-0.41875958379797557
16.096,-0.40089147459017627
16.1,-0.3777450321277162
16.104,-0.36891978026612243
16.108,-0.4009638281122845
16.112,-0.37767391319131
16.116,-0.3694450276396674
16.12,-0.3821716878351947
16.124,-0.4155195278182217
16.128,-0.3948654160313655
16.132,-0.39854769834946513
16.136,-0.4156424591109451
16.14,-0.43240518068775063
16.144,-0.4335283613260039
16.148,-0.4409242574237051
16.152,-0.45797736383661714
16.156,-0.44682943332408614
16.16,-0.46549600560604354
16.164,-0.47866107856890244
16.168,-0.4835724604360355
16.172,-0.47555691066123496
16.176,-0.46233946714623064
16.18,-0.48092319416733503
16.184,-0.4653028360522394
16.188,-0.46841913844851224
16.192,-0.4471947207631561
16.196,-0.4607461519936631
16.2,-0.46898470890734567
16.204,-0.4518757743921001
16.208,-0.44869401738680814
16.212,-0.45745937019108895
16.216,-0.4621787269745831
16.22,-0.442191265716892
16.224,-0.44389880726804115
16.228,-0.45665984725188913
16.232,-0.4359158669448052
16.236,-0.44191116424299726
16.24,-0.4482400557658196
16.244,-0.4355396020661721
16.248,-0.4214686528647389
16.252,-0.4309134134258129
16.256,-0.4517170162999192
16.26,-0.4865059622837926
16.264,-0.5156264504059351
16.268,-0.5459504631656656
16.272,-0.5634855674019066
16.276,-0.5393102252620428
16.28,-0.4859026640278467
16.284,-0.3893015759278505
16.288,-0.2881579151953706
16.292,-0.1707869927372981
16.296,0.017718297871425925
16.3,0.2175277649388963
16.304,0.4197254543257662
16.308,0.5651468615071621
16.312,0.6420231692287055
16.316,0.5768060514946882
16.32,0.4362505307829168
16.324,0.2422017878842409
16.328,0.028839905371677466
16.332,-0.13764399502400726
16.336,-0.2740640126405659
16.34,-0.38800230044240847
16.344,-0.5074525710861754
16.348,-0.5740488977625275
16.352,-0.5808545751058225
16.356,-0.5499592621078069
16.36,-0.5052293865126183
16.364,-0.43859312516740434
16.368,-0.4030552978774459
16.372,-0.3556576227706002
16.376,-0.34820191860429617
16.38,-0.3146381456868326
16.384,-0.3273762712209479
16.388,-0.287221695967406
16.392,-0.28055585974841657
16.396,-0.29040431596605537
16.4,-0.30260335939356403
16.404,-0.2792857884669536
16.408,-0.25988507768543834
16.412,-0.2689945056914676
16.416,-0.25699071442991617
16.42,-0.2685615253473795
16.424,-0.2670351024715408
16.428,-0.2533474968845136
16.432,-0.26587933903876637
16.436,-0.21755327460922907
16.44,-0.2319355691807634
16.444,-0.2173032152761185
16.448,-0.22266914500896584
16.452,-0.22495514441738906
16.456,-0.18606744084445206
16.46,-0.2016458716732074
16.464,-0.17622554807857405
16.468,-0.16378092211652362
16.472,-0.15512738425864092
16.476,-0.15050568240387535
16.48,-0.1300818813747069
16.484,-0.1231562823233716
16.488,-0.08980927951471507
16.492,-0.07565710314871966
16.496,-0.06435738482666278
16.5,-0.05199254469276146
16.504,-0.0069146035581996446
16.508,-0.022340318169699225
16.512,-0.005911225420759919
16.516,0.027577582682256657
16.52,0.044494960638835845
16.524,0.07634016388450865
16.528,0.08951532841678858
16.532,0.10022882506985328
16.536,0.1207989194938131
16.54,0.13526468109106113
16.544,0.16473006358770612
16.548,0.1579229289400498
16.552,0.15858166621631242
16.556,0.17558377685650783
16.56,0.15374942678503878
16.564,0.18404163346073807
16.568,0.1978240833216835
16.572,0.19357286035574384
16.576,0.18939565765540992
16.58,0.1900686777226292
16.584,0.19021675242023864
16.588,0.1876463977903799
16.592,0.17086157077266784
16.596,0.15519852712092014
16.6,0.1263832745455431
16.604,0.14985614685417598
16.608,0.13538909626694062
16.612,0.12173646455424014
16.616,0.10330483245931582
16.62,0.10999277607397118
16.624,0.0882650218427582
16.628,0.08146898166152997
16.632,0.07282642241588935
16.636,0.0701502287263433
16.64,0.04719553253610073
16.644,0.058152823174885446
16.648,0.04000916890069783
16.652,0.03590720231570145
16.656,0.04801565988060026
16.66,0.026441795851274884
16.664,0.04325410780170082
16.668,0.03421818493372432
16.672,0.01621510925960035
16.676,0.04649089226249589
16.68,0.036695305464746156
16.684,0.038821411393307345
16.688,0.04672349770702645
16.692,0.05384219132785921
16.696,0.04343424186868618
16.7,0.0504963743088157
16.704,0.0512147465194391
16.708,0.04749191940868087
16.712,0.038704989281449255
16.716,0.06047532498780966
16.72,0.07604126166833972
16.724,0.07212490060087129
16.728,0.05974937984431847
16.732,0.08560490383419626
16.736,0.07579968391696668
16.74,0.06228456900159961
16.744,0.09772941993132742
16.748,0.08246850403252225
16.752,0.11412078228587486
16.756,0.11219592486934207
16.76,0.10285376640274285
16.764,0.11414409982012785
16.768,0.13821065391795423
16.772,0.12839238682789963
16.776,0.12519318581652888
16.78,0.15611813671164504
16.784,0.13281317991163027
16.788,0.141860704247543
16.792,0.13107925319328945
16.796,0.12808603362884868
16.8,0.14633951292153813
16.804,0.15397795191865216
16.808,0.1612544666622031
16.812,0.14812335010630034
16.816,0.1732779807788271
16.82,0.1627082077686216
16.824,0.18143060120625396
16.828,0.18901382534891528
16.832,0.1800206427318482
16.836,0.17863838544207986
16.84,0.20800343999570697
16.844,0.2055759568022452
16.848,0.20263622357339314
16.852,0.2200607448113459
16.856,0.21046089046574473
16.86,0.207669559480248
16.864,0.20810351985505485
16.868,0.221296646577373
16.872,0.2343684525820236
16.876,0.2448708284765707
16.88,0.2356108818292684
16.884,0.25204226023667586
16.888,0.2425105885051633
16.892,0.24188846397302702
16.896,0.24213497616128643
16.9,0.25623905135184305
16.904,0.2555261516304674
16.908,0.2962477189804918
16.912,0.2897407076462991
16.916,0.2950497756697796
16.92,0.3255034829396931
16.924,0.30922498412746946
16.928,0.33646750785240537
16.932,0.37483600459104993
16.936,0.3714136239384346
16.94,0.41578221804992715
16.944,0.4173584950938518
16.948,0.43966560105550356
16.952,0.45513948669433124
16.956,0.45429950411316766
16.96,0.458581909088739
16.964,0.4677809492238728
16.968,0.4607044720622092
16.972,0.46788467599316086
16.976,0.4632357279637447
16.98,0.47232033447422156
16.984,0.45170761437217455
16.988,0.4587832843636061
16.992,0.40278179560823674
16.996,0.4019624103399995
17.0,0.4014147530771488
17.004,0.4121762344285319
17.008,0.39007924601130306
17.012,0.37209952525468687
17.016,0.38152522497598446
17.02,0.3706285254452902
17.024,0.36851281587543694
17.028,0.4032708737843432
17.032,0.3813703312943465
17.036,0.38879755519152726
17.04,0.38872911553619965
17.044,0.39002020540587296
17.048,0.38719090483787744
17.052,0.3956681936886792
17.056,0.405388822070388
17.06,0.4194761134646263
17.064,0.41804693835455425
17.068,0.39966047860226783
17.072,0.42500219658434074
17.076,0.423118023351088
17.08,0.41533511398383294
17.084,0.42656272634279235
17.088,0.43344766912257693
17.092,0.4306250568582358
17.096,0.4358461725774541
17.1,0.41972456757625853
17.104,0.43888555501805937
17.108,0.38057030484836946
17.112,0.3768448779564254
17.116,0.3421546066426928
17.12,0.32026092418943203
17.124,0.3026800380180803
17.128,0.3452785055773616
17.132,0.3843770559486742
17.136,0.45144451410088837
17.14,0.558390873805667
17.144,0.7116114616447065
17.148,0.8734413831191588
17.152,1.1120332111349815
17.156,1.3014905423543763
17.16,1.4523690860135414
17.164,1.5004114825407107
17.168,1.4203798296614338
17.172,1.2662124093739213
17.176,1.0511521454802653
17.18,0.8728802497600113
17.184,0.7178483841993762
17.188,0.5469897068938261
17.192,0.43571289637701277
17.196,0.3396470068337189
17.2,0.28731056979240227
17.204,0.2755828248333801
17.208,0.26915824955447715
17.212,0.32338470781977635
17.216,0.413677290802994
17.22,0.45955973400041045
17.224,0.4863515514097795
17.228,0.5271482534173723
17.232,0.5072436134293561
17.236,0.5357244903216616
17.24,0.5290654619319715
17.244,0.5384251267103404
17.248,0.510924057749595
17.252,0.534624064686274
17.256,0.5470919388871033
17.26,0.5416704404688492
17.264,0.5575498047481657
17.268,0.5600503756670823
17.272,0.5412576245675733
17.276,0.5623067945967856
17.28,0.5476180108248513
17.284,0.5618623459023117
17.288,0.572010267094124
17.292,0.5616249642842983
17.296,0.5828332365479061
17.3,0.575410906783171
17.304,0.5807295346733214
17.308,0.6003026388492421
17.312,0.592256573160273
17.316,0.5998565756846674
17.32,0.6280141458765691
17.324,0.6283656983881353
17.328,0.6232350485029761
17.332,0.6576514334592067
17.336,0.6571576137119848
17.34,0.6601001144485714
17.344,0.6626892205669187
17.348,0.711079683610983
17.352,0.7082835299606889
17.356,0.7197158222519968
17.36,0.75411286257383
17.364,0.7714727608958318
17.368,0.7711919653354808
17.372,0.8035958702343441
17.376,0.8299788225126079
17.38,0.837200654937684
17.384,0.849081395980585
17.388,0.852675290428681
17.392,0.8561904181800186
17.396,0.8697127522719927
17.4,0.8827146541646009
17.404,0.8720265613396919
17.408,0.8813584154723447
17.412,0.8773119873627667
17.416,0.894531386558367
17.42,0.8916555083877415
17.424,0.8810378665712425
17.428,0.8906788171520204
17.432,0.8652128221601008
17.436,0.8603583918623026
17.44,0.8652349576517337
17.444,0.8556484420251007
17.448,0.8262889772104309
17.452,0.8236152432835928
17.456,0.7999291126108843
17.46,0.7917495738759495
17.464,0.7809535531271604
17.468,0.7708893269188897
17.472,0.7543868307811579
17.476,0.7401821903766763
17.48,0.7133568618563201
17.484,0.7152841044392492
17.488,0.7048333479190941
17.492,0.6948663704554838
17.496,0.6702184470240103
17.5,0.6768172640464769
17.504,0.6455580942489605
17.508,0.6463061241983459
17.512,0.6405371036650389
17.516,0.6241078062060379
17.52,0.6279841313035299
17.524,0.62793627797574
17.528,0.6029112288523498
17.532,0.6132304182011734
17.536,0.5962051404062179
17.54,0.6310630222560332
17.544,0.6101225517603854
17.548,0.6069450451874195
17.552,0.6059867050329923
17.556,0.6079353877799784
17.56,0.6100999802108585
17.564,0.5832784921844328
17.568,0.6107462876698684
17.572,0.6089397251512019
17.576,0.5947368808338211
17.58,0.5931928253828254
17.584,0.5623753531017056
17.588,0.5800140491229365
17.592,0.5967092038243635
17.596,0.6025991872964129
17.6,0.5969509241624774
17.604,0.5879654786798526
17.608,0.6070265973264466
17.612,0.5968457819967175
17.616,0.5818594964547493
17.62,0.6065975854951586
17.624,0.5727665130776756
17.628,0.5679329584681897
17.632,0.5773338081058488
17.636,0.572821439688648
17.64,0.5755903641244055
17.644,0.5860208429271472
17.648,0.5764685055821769
17.652,0.575461604657567
17.656,0.5748367729444226
17.66,0.5497971431203517
17.664,0.5564072826167219
17.668,0.5663140364063639
17.672,0.5603130302286911
17.676,0.5649677873867109
17.68,0.5798389630885256
17.684,0.5635347887123099
17.688,0.5495104478537178
17.692,0.553228158909621
17.696,0.5766712199425608
17.7,0.5732845856178801
17.704,0.5623145831255292
17.708,0.5391514937723745
17.712,0.5563235876256911
17.716,0.5556813178657344
17.72,0.550870830145739
17.724,0.5439684378487478
17.728,0.5455086522219549
17.732,0.5427823269955412
17.736,0.5385476428757582
17.74,0.5654712484588476
17.744,0.563668910823936
17.748,0.5564630802572182
17.752,0.5688951764168425
17.756,0.5770021726895995
17.76,0.6058889441975325
17.764,0.6019600375577454
17.768,0.6133959244016611
17.772,0.6177263173927497
17.776,0.6250787446508536
17.78,0.6542976270364917
17.784,0.6561756802542219
17.788,0.647895156948166
17.792,0.6639859852163819
17.796,0.6673800817191038
17.8,0.6337623578545193
17.804,0.6375088835257641
17.808,0.6390831652526772
17.812,0.6022775747270728
17.816,0.5880497306410805
17.82,0.5861536850908503
17.824,0.5766879498377486
17.828,0.5605401444161621
17.832,0.5554100121561081
17.836,0.5262492187806973
17.84,0.5091644525238856
17.844,0.4889558544232566
17.848,0.48892141938352374
17.852,0.4920201869982159
17.856,0.48587828577794995
17.86,0.47540538634087515
17.864,0.47342074169554094
17.868,0.47648958511821965
17.872,0.46067529127735735
17.876,0.4700817105989597
17.88,0.44581713544202484
17.884,0.44914208643826387
17.888,0.441923419307303
17.892,0.45154660366461763
17.896,0.43037127655508034
17.9,0.43418984113823
17.904,0.4156883620775895
17.908,0.4370869559057828
17.912,0.440441479547642
17.916,0.4338558102560945
17.92,0.4294896393412332
17.924,0.42586661959269
17.928,0.4191533333877593
17.932,0.4096182706191374
17.936,0.3951530149882427
17.94,0.3571792683048199
17.944,0.32721348546084944
17.948,0.29088546186992636
17.952,0.25464119714823774
17.956,0.2298395161765373
17.96,0.24824698728572844
17.964,0.30621176547280077
17.968,0.382342828733313
17.972,0.4705310634488673
17.976,0.6296654872689231
17.98,0.7626106822058346
17.984,0.9734278285336126
17.988,1.1748065248905772
17.992,1.3154342173815488
17.996,1.3627351254032043
18.0,1.3098249669568567
18.004,1.1503066155132755
18.008,0.9652567129843126
18.012,0.7531643861990345
18.016,0.5462675266897025
18.02,0.4043090963147565
18.024,0.25986132610823004
18.028,0.1895424698888142
18.032,0.1057764070488244
18.036,0.08638103979303982
18.04,0.08420134484885483
18.044,0.11108380904984791
18.048,0.2117672591680398
18.052,0.23508342323996484
18.056,0.2557237821022249
18.06,0.2932434548499241
18.064,0.3074401698330112
18.068,0.2847250797569824
18.072,0.2830734445964869
18.076,0.28297784135007437
18.08,0.2658320249939809
18.084,0.2663858063477676
18.088,0.28753179364759396
18.092,0.2649106186571806
18.096,0.2545040366893511
18.1,0.2551620411806764
18.104,0.2674025102249834
18.108,0.23413330706374322
18.112,0.2539244530612947
18.116,0.27379912958966507
18.12,0.2676493630359866
18.124,0.25164823395234326
18.128,0.25812929273094826
18.132,0.2576101678318408
18.136,0.2434464117516942
18.14,0.2547583997088333
18.144,0.2648979587204336
18.148,0.2366210358781316
18.152,0.2580581470414663
18.156,0.25975789291274487
